Ion = Hydrogen    . Mass = 1.0079
Tgt = Xe (Solid). Density = 3.0589 g/cm3
Stopping Units =  eV/(1E15 atoms/cm2)
Energy(keV)  S(Elec)    S(Nuc)
1.000E+00   8.267E+00  3.174E-01 
1.012E+00   8.315E+00  3.177E-01 
1.023E+00   8.363E+00  3.180E-01 
1.035E+00   8.411E+00  3.182E-01 
1.047E+00   8.460E+00  3.185E-01 
1.059E+00   8.509E+00  3.188E-01 
1.072E+00   8.558E+00  3.191E-01 
1.084E+00   8.608E+00  3.193E-01 
1.097E+00   8.657E+00  3.196E-01 
1.109E+00   8.707E+00  3.198E-01 
1.122E+00   8.758E+00  3.201E-01 
1.135E+00   8.808E+00  3.203E-01 
1.148E+00   8.859E+00  3.205E-01 
1.162E+00   8.911E+00  3.208E-01 
1.175E+00   8.962E+00  3.210E-01 
1.189E+00   9.014E+00  3.212E-01 
1.203E+00   9.066E+00  3.214E-01 
1.217E+00   9.118E+00  3.216E-01 
1.231E+00   9.171E+00  3.218E-01 
1.245E+00   9.224E+00  3.220E-01 
1.259E+00   9.278E+00  3.222E-01 
1.274E+00   9.331E+00  3.224E-01 
1.289E+00   9.385E+00  3.226E-01 
1.304E+00   9.439E+00  3.227E-01 
1.319E+00   9.494E+00  3.229E-01 
1.334E+00   9.549E+00  3.231E-01 
1.350E+00   9.604E+00  3.232E-01 
1.365E+00   9.660E+00  3.234E-01 
1.381E+00   9.716E+00  3.235E-01 
1.397E+00   9.772E+00  3.237E-01 
1.413E+00   9.828E+00  3.238E-01 
1.430E+00   9.885E+00  3.239E-01 
1.446E+00   9.942E+00  3.240E-01 
1.463E+00   1.000E+01  3.242E-01 
1.480E+00   1.006E+01  3.243E-01 
1.497E+00   1.012E+01  3.244E-01 
1.515E+00   1.017E+01  3.245E-01 
1.532E+00   1.023E+01  3.246E-01 
1.550E+00   1.029E+01  3.247E-01 
1.568E+00   1.035E+01  3.247E-01 
1.586E+00   1.041E+01  3.248E-01 
1.605E+00   1.047E+01  3.249E-01 
1.623E+00   1.053E+01  3.249E-01 
1.642E+00   1.059E+01  3.250E-01 
1.661E+00   1.065E+01  3.250E-01 
1.680E+00   1.072E+01  3.251E-01 
1.700E+00   1.078E+01  3.251E-01 
1.719E+00   1.084E+01  3.251E-01 
1.739E+00   1.090E+01  3.252E-01 
1.760E+00   1.097E+01  3.252E-01 
1.780E+00   1.103E+01  3.252E-01 
1.801E+00   1.109E+01  3.252E-01 
1.822E+00   1.116E+01  3.252E-01 
1.843E+00   1.122E+01  3.252E-01 
1.864E+00   1.129E+01  3.252E-01 
1.886E+00   1.135E+01  3.251E-01 
1.908E+00   1.142E+01  3.251E-01 
1.930E+00   1.148E+01  3.251E-01 
1.952E+00   1.155E+01  3.250E-01 
1.975E+00   1.162E+01  3.250E-01 
1.998E+00   1.168E+01  3.249E-01 
2.021E+00   1.175E+01  3.249E-01 
2.044E+00   1.181E+01  3.248E-01 
2.068E+00   1.187E+01  3.247E-01 
2.092E+00   1.193E+01  3.247E-01 
2.116E+00   1.200E+01  3.246E-01 
2.141E+00   1.206E+01  3.245E-01 
2.166E+00   1.212E+01  3.244E-01 
2.191E+00   1.218E+01  3.243E-01 
2.216E+00   1.225E+01  3.242E-01 
2.242E+00   1.231E+01  3.240E-01 
2.268E+00   1.238E+01  3.239E-01 
2.294E+00   1.244E+01  3.238E-01 
2.321E+00   1.251E+01  3.236E-01 
2.348E+00   1.257E+01  3.235E-01 
2.375E+00   1.264E+01  3.233E-01 
2.402E+00   1.271E+01  3.232E-01 
2.430E+00   1.277E+01  3.230E-01 
2.458E+00   1.284E+01  3.228E-01 
2.487E+00   1.291E+01  3.227E-01 
2.516E+00   1.298E+01  3.225E-01 
2.545E+00   1.304E+01  3.223E-01 
2.574E+00   1.311E+01  3.221E-01 
2.604E+00   1.318E+01  3.219E-01 
2.635E+00   1.325E+01  3.216E-01 
2.665E+00   1.332E+01  3.214E-01 
2.696E+00   1.339E+01  3.212E-01 
2.727E+00   1.347E+01  3.210E-01 
2.759E+00   1.354E+01  3.207E-01 
2.791E+00   1.361E+01  3.205E-01 
2.823E+00   1.368E+01  3.202E-01 
2.856E+00   1.376E+01  3.199E-01 
2.889E+00   1.383E+01  3.197E-01 
2.923E+00   1.390E+01  3.194E-01 
2.957E+00   1.398E+01  3.191E-01 
2.991E+00   1.405E+01  3.188E-01 
3.026E+00   1.413E+01  3.185E-01 
3.061E+00   1.420E+01  3.182E-01 
3.096E+00   1.428E+01  3.179E-01 
3.132E+00   1.436E+01  3.176E-01 
3.168E+00   1.443E+01  3.173E-01 
3.205E+00   1.451E+01  3.169E-01 
3.242E+00   1.459E+01  3.166E-01 
3.280E+00   1.467E+01  3.162E-01 
3.318E+00   1.475E+01  3.159E-01 
3.356E+00   1.483E+01  3.155E-01 
3.395E+00   1.491E+01  3.152E-01 
3.435E+00   1.499E+01  3.148E-01 
3.475E+00   1.507E+01  3.144E-01 
3.515E+00   1.515E+01  3.140E-01 
3.556E+00   1.524E+01  3.136E-01 
3.597E+00   1.532E+01  3.132E-01 
3.639E+00   1.540E+01  3.128E-01 
3.681E+00   1.549E+01  3.124E-01 
3.724E+00   1.557E+01  3.120E-01 
3.767E+00   1.566E+01  3.115E-01 
3.810E+00   1.574E+01  3.111E-01 
3.855E+00   1.583E+01  3.107E-01 
3.899E+00   1.592E+01  3.102E-01 
3.945E+00   1.600E+01  3.098E-01 
3.990E+00   1.609E+01  3.093E-01 
4.037E+00   1.618E+01  3.088E-01 
4.083E+00   1.627E+01  3.083E-01 
4.131E+00   1.636E+01  3.079E-01 
4.179E+00   1.645E+01  3.074E-01 
4.227E+00   1.654E+01  3.069E-01 
4.276E+00   1.663E+01  3.064E-01 
4.326E+00   1.672E+01  3.059E-01 
4.376E+00   1.681E+01  3.053E-01 
4.427E+00   1.691E+01  3.048E-01 
4.478E+00   1.700E+01  3.043E-01 
4.530E+00   1.709E+01  3.038E-01 
4.583E+00   1.719E+01  3.032E-01 
4.636E+00   1.728E+01  3.027E-01 
4.690E+00   1.738E+01  3.021E-01 
4.744E+00   1.748E+01  3.016E-01 
4.799E+00   1.757E+01  3.010E-01 
4.855E+00   1.767E+01  3.004E-01 
4.911E+00   1.777E+01  2.998E-01 
4.968E+00   1.787E+01  2.992E-01 
5.026E+00   1.797E+01  2.986E-01 
5.084E+00   1.807E+01  2.980E-01 
5.143E+00   1.817E+01  2.974E-01 
5.202E+00   1.827E+01  2.968E-01 
5.263E+00   1.837E+01  2.962E-01 
5.324E+00   1.847E+01  2.956E-01 
5.386E+00   1.858E+01  2.950E-01 
5.448E+00   1.868E+01  2.943E-01 
5.511E+00   1.879E+01  2.937E-01 
5.575E+00   1.889E+01  2.930E-01 
5.640E+00   1.900E+01  2.924E-01 
5.705E+00   1.910E+01  2.917E-01 
5.771E+00   1.921E+01  2.910E-01 
5.838E+00   1.932E+01  2.904E-01 
5.906E+00   1.943E+01  2.897E-01 
5.975E+00   1.954E+01  2.890E-01 
6.044E+00   1.965E+01  2.883E-01 
6.114E+00   1.976E+01  2.876E-01 
6.185E+00   1.987E+01  2.869E-01 
6.257E+00   1.998E+01  2.862E-01 
6.329E+00   2.009E+01  2.855E-01 
6.403E+00   2.021E+01  2.848E-01 
6.477E+00   2.032E+01  2.841E-01 
6.552E+00   2.043E+01  2.833E-01 
6.628E+00   2.055E+01  2.826E-01 
6.705E+00   2.067E+01  2.819E-01 
6.783E+00   2.078E+01  2.811E-01 
6.861E+00   2.090E+01  2.804E-01 
6.941E+00   2.102E+01  2.796E-01 
7.021E+00   2.114E+01  2.788E-01 
7.103E+00   2.126E+01  2.781E-01 
7.185E+00   2.138E+01  2.773E-01 
7.269E+00   2.150E+01  2.765E-01 
7.353E+00   2.162E+01  2.758E-01 
7.438E+00   2.174E+01  2.750E-01 
7.524E+00   2.187E+01  2.742E-01 
7.612E+00   2.199E+01  2.734E-01 
7.700E+00   2.212E+01  2.726E-01 
7.789E+00   2.224E+01  2.718E-01 
7.880E+00   2.237E+01  2.710E-01 
7.971E+00   2.249E+01  2.702E-01 
8.064E+00   2.262E+01  2.693E-01 
8.157E+00   2.275E+01  2.685E-01 
8.252E+00   2.288E+01  2.677E-01 
8.347E+00   2.301E+01  2.669E-01 
8.444E+00   2.314E+01  2.660E-01 
8.542E+00   2.327E+01  2.652E-01 
8.641E+00   2.340E+01  2.643E-01 
8.741E+00   2.354E+01  2.635E-01 
8.843E+00   2.367E+01  2.626E-01 
8.945E+00   2.381E+01  2.618E-01 
9.049E+00   2.394E+01  2.609E-01 
9.154E+00   2.408E+01  2.601E-01 
9.260E+00   2.422E+01  2.592E-01 
9.368E+00   2.435E+01  2.583E-01 
9.476E+00   2.449E+01  2.574E-01 
9.586E+00   2.463E+01  2.566E-01 
9.698E+00   2.477E+01  2.557E-01 
9.810E+00   2.491E+01  2.548E-01 
9.924E+00   2.505E+01  2.539E-01 
1.004E+01   2.520E+01  2.530E-01 
1.016E+01   2.534E+01  2.521E-01 
1.027E+01   2.549E+01  2.512E-01 
1.039E+01   2.563E+01  2.503E-01 
1.051E+01   2.578E+01  2.494E-01 
1.063E+01   2.592E+01  2.485E-01 
1.076E+01   2.607E+01  2.476E-01 
1.088E+01   2.622E+01  2.467E-01 
1.101E+01   2.637E+01  2.458E-01 
1.114E+01   2.652E+01  2.448E-01 
1.127E+01   2.667E+01  2.439E-01 
1.140E+01   2.682E+01  2.430E-01 
1.153E+01   2.697E+01  2.421E-01 
1.166E+01   2.713E+01  2.411E-01 
1.180E+01   2.728E+01  2.402E-01 
1.193E+01   2.744E+01  2.393E-01 
1.207E+01   2.759E+01  2.383E-01 
1.221E+01   2.775E+01  2.374E-01 
1.235E+01   2.791E+01  2.364E-01 
1.250E+01   2.806E+01  2.355E-01 
1.264E+01   2.822E+01  2.345E-01 
1.279E+01   2.838E+01  2.336E-01 
1.294E+01   2.854E+01  2.326E-01 
1.309E+01   2.871E+01  2.317E-01 
1.324E+01   2.887E+01  2.307E-01 
1.339E+01   2.903E+01  2.298E-01 
1.355E+01   2.920E+01  2.288E-01 
1.371E+01   2.936E+01  2.279E-01 
1.387E+01   2.953E+01  2.269E-01 
1.403E+01   2.969E+01  2.259E-01 
1.419E+01   2.986E+01  2.250E-01 
1.435E+01   3.003E+01  2.240E-01 
1.452E+01   3.020E+01  2.230E-01 
1.469E+01   3.037E+01  2.221E-01 
1.486E+01   3.054E+01  2.211E-01 
1.503E+01   3.071E+01  2.201E-01 
1.521E+01   3.088E+01  2.191E-01 
1.538E+01   3.106E+01  2.182E-01 
1.556E+01   3.123E+01  2.172E-01 
1.574E+01   3.141E+01  2.162E-01 
1.592E+01   3.158E+01  2.152E-01 
1.611E+01   3.176E+01  2.143E-01 
1.629E+01   3.193E+01  2.133E-01 
1.648E+01   3.211E+01  2.123E-01 
1.667E+01   3.229E+01  2.113E-01 
1.687E+01   3.247E+01  2.103E-01 
1.706E+01   3.265E+01  2.094E-01 
1.726E+01   3.283E+01  2.084E-01 
1.746E+01   3.301E+01  2.074E-01 
1.766E+01   3.320E+01  2.064E-01 
1.787E+01   3.338E+01  2.054E-01 
1.808E+01   3.356E+01  2.045E-01 
1.829E+01   3.375E+01  2.035E-01 
1.850E+01   3.393E+01  2.025E-01 
1.871E+01   3.412E+01  2.015E-01 
1.893E+01   3.431E+01  2.005E-01 
1.915E+01   3.449E+01  1.996E-01 
1.937E+01   3.468E+01  1.986E-01 
1.960E+01   3.487E+01  1.976E-01 
1.982E+01   3.506E+01  1.966E-01 
2.005E+01   3.525E+01  1.956E-01 
2.029E+01   3.544E+01  1.946E-01 
2.052E+01   3.563E+01  1.937E-01 
2.076E+01   3.582E+01  1.927E-01 
2.100E+01   3.602E+01  1.917E-01 
2.124E+01   3.621E+01  1.907E-01 
2.149E+01   3.640E+01  1.898E-01 
2.174E+01   3.660E+01  1.888E-01 
2.199E+01   3.679E+01  1.878E-01 
2.225E+01   3.699E+01  1.868E-01 
2.250E+01   3.718E+01  1.859E-01 
2.277E+01   3.738E+01  1.849E-01 
2.303E+01   3.757E+01  1.839E-01 
2.330E+01   3.777E+01  1.829E-01 
2.357E+01   3.797E+01  1.820E-01 
2.384E+01   3.817E+01  1.810E-01 
2.412E+01   3.836E+01  1.800E-01 
2.440E+01   3.856E+01  1.791E-01 
2.468E+01   3.876E+01  1.781E-01 
2.497E+01   3.896E+01  1.771E-01 
2.526E+01   3.916E+01  1.762E-01 
2.555E+01   3.936E+01  1.752E-01 
2.584E+01   3.956E+01  1.742E-01 
2.614E+01   3.976E+01  1.733E-01 
2.645E+01   3.996E+01  1.723E-01 
2.675E+01   4.016E+01  1.714E-01 
2.707E+01   4.036E+01  1.704E-01 
2.738E+01   4.056E+01  1.695E-01 
2.770E+01   4.076E+01  1.685E-01 
2.802E+01   4.096E+01  1.676E-01 
2.834E+01   4.116E+01  1.666E-01 
2.867E+01   4.136E+01  1.657E-01 
2.900E+01   4.156E+01  1.647E-01 
2.934E+01   4.176E+01  1.638E-01 
2.968E+01   4.197E+01  1.629E-01 
3.003E+01   4.217E+01  1.619E-01 
3.037E+01   4.236E+01  1.610E-01 
3.073E+01   4.256E+01  1.601E-01 
3.108E+01   4.276E+01  1.591E-01 
3.144E+01   4.296E+01  1.582E-01 
3.181E+01   4.316E+01  1.573E-01 
3.218E+01   4.336E+01  1.563E-01 
3.255E+01   4.356E+01  1.554E-01 
3.293E+01   4.375E+01  1.545E-01 
3.331E+01   4.395E+01  1.536E-01 
3.370E+01   4.414E+01  1.527E-01 
3.409E+01   4.434E+01  1.518E-01 
3.448E+01   4.453E+01  1.509E-01 
3.488E+01   4.473E+01  1.499E-01 
3.529E+01   4.492E+01  1.490E-01 
3.570E+01   4.511E+01  1.481E-01 
3.611E+01   4.530E+01  1.472E-01 
3.653E+01   4.549E+01  1.463E-01 
3.695E+01   4.568E+01  1.455E-01 
3.738E+01   4.587E+01  1.446E-01 
3.781E+01   4.606E+01  1.437E-01 
3.825E+01   4.624E+01  1.428E-01 
3.870E+01   4.642E+01  1.419E-01 
3.915E+01   4.661E+01  1.410E-01 
3.960E+01   4.679E+01  1.401E-01 
4.006E+01   4.697E+01  1.393E-01 
4.052E+01   4.715E+01  1.384E-01 
4.099E+01   4.732E+01  1.375E-01 
4.147E+01   4.750E+01  1.367E-01 
4.195E+01   4.767E+01  1.358E-01 
4.244E+01   4.784E+01  1.349E-01 
4.293E+01   4.801E+01  1.341E-01 
4.343E+01   4.818E+01  1.332E-01 
4.393E+01   4.834E+01  1.324E-01 
4.444E+01   4.850E+01  1.315E-01 
4.496E+01   4.867E+01  1.307E-01 
4.548E+01   4.882E+01  1.298E-01 
4.600E+01   4.898E+01  1.290E-01 
4.654E+01   4.913E+01  1.282E-01 
4.708E+01   4.928E+01  1.273E-01 
4.762E+01   4.943E+01  1.265E-01 
4.818E+01   4.958E+01  1.257E-01 
4.873E+01   4.972E+01  1.249E-01 
4.930E+01   4.986E+01  1.240E-01 
4.987E+01   5.000E+01  1.232E-01 
5.045E+01   5.014E+01  1.224E-01 
5.104E+01   5.027E+01  1.216E-01 
5.163E+01   5.040E+01  1.208E-01 
5.223E+01   5.052E+01  1.200E-01 
5.283E+01   5.064E+01  1.192E-01 
5.344E+01   5.076E+01  1.184E-01 
5.406E+01   5.088E+01  1.176E-01 
5.469E+01   5.099E+01  1.168E-01 
5.533E+01   5.110E+01  1.160E-01 
5.597E+01   5.120E+01  1.152E-01 
5.662E+01   5.130E+01  1.145E-01 
5.727E+01   5.140E+01  1.137E-01 
5.794E+01   5.149E+01  1.129E-01 
5.861E+01   5.158E+01  1.121E-01 
5.929E+01   5.167E+01  1.114E-01 
5.998E+01   5.175E+01  1.106E-01 
6.067E+01   5.182E+01  1.099E-01 
6.138E+01   5.190E+01  1.091E-01 
6.209E+01   5.197E+01  1.083E-01 
6.281E+01   5.203E+01  1.076E-01 
6.354E+01   5.209E+01  1.069E-01 
6.427E+01   5.215E+01  1.061E-01 
6.502E+01   5.220E+01  1.054E-01 
6.577E+01   5.224E+01  1.046E-01 
6.654E+01   5.229E+01  1.039E-01 
6.731E+01   5.232E+01  1.032E-01 
6.809E+01   5.236E+01  1.025E-01 
6.888E+01   5.238E+01  1.017E-01 
6.968E+01   5.241E+01  1.010E-01 
7.049E+01   5.243E+01  1.003E-01 
7.130E+01   5.244E+01  9.959E-02 
7.213E+01   5.245E+01  9.889E-02 
7.297E+01   5.245E+01  9.818E-02 
7.381E+01   5.245E+01  9.748E-02 
7.467E+01   5.245E+01  9.679E-02 
7.554E+01   5.244E+01  9.609E-02 
7.641E+01   5.242E+01  9.541E-02 
7.730E+01   5.240E+01  9.472E-02 
7.820E+01   5.238E+01  9.404E-02 
7.910E+01   5.235E+01  9.336E-02 
8.002E+01   5.231E+01  9.269E-02 
8.095E+01   5.227E+01  9.201E-02 
8.189E+01   5.223E+01  9.135E-02 
8.284E+01   5.218E+01  9.068E-02 
8.380E+01   5.213E+01  9.002E-02 
8.477E+01   5.207E+01  8.937E-02 
8.575E+01   5.200E+01  8.871E-02 
8.675E+01   5.193E+01  8.806E-02 
8.775E+01   5.186E+01  8.742E-02 
8.877E+01   5.178E+01  8.677E-02 
8.980E+01   5.170E+01  8.613E-02 
9.084E+01   5.162E+01  8.550E-02 
9.190E+01   5.153E+01  8.487E-02 
9.296E+01   5.143E+01  8.424E-02 
9.404E+01   5.133E+01  8.361E-02 
9.513E+01   5.123E+01  8.299E-02 
9.624E+01   5.112E+01  8.237E-02 
9.735E+01   5.101E+01  8.176E-02 
9.848E+01   5.089E+01  8.115E-02 
9.962E+01   5.077E+01  8.054E-02 
1.008E+02   5.065E+01  7.994E-02 
1.019E+02   5.052E+01  7.934E-02 
1.031E+02   5.039E+01  7.874E-02 
1.043E+02   5.025E+01  7.814E-02 
1.055E+02   5.012E+01  7.755E-02 
1.068E+02   4.997E+01  7.697E-02 
1.080E+02   4.983E+01  7.638E-02 
1.093E+02   4.968E+01  7.581E-02 
1.105E+02   4.953E+01  7.523E-02 
1.118E+02   4.938E+01  7.466E-02 
1.131E+02   4.922E+01  7.409E-02 
1.144E+02   4.906E+01  7.352E-02 
1.157E+02   4.890E+01  7.296E-02 
1.171E+02   4.873E+01  7.240E-02 
1.184E+02   4.857E+01  7.184E-02 
1.198E+02   4.840E+01  7.129E-02 
1.212E+02   4.823E+01  7.074E-02 
1.226E+02   4.805E+01  7.020E-02 
1.240E+02   4.788E+01  6.965E-02 
1.255E+02   4.770E+01  6.912E-02 
1.269E+02   4.752E+01  6.858E-02 
1.284E+02   4.734E+01  6.805E-02 
1.299E+02   4.716E+01  6.752E-02 
1.314E+02   4.697E+01  6.699E-02 
1.329E+02   4.679E+01  6.647E-02 
1.345E+02   4.660E+01  6.595E-02 
1.360E+02   4.641E+01  6.544E-02 
1.376E+02   4.622E+01  6.492E-02 
1.392E+02   4.603E+01  6.442E-02 
1.408E+02   4.584E+01  6.391E-02 
1.424E+02   4.565E+01  6.341E-02 
1.441E+02   4.546E+01  6.291E-02 
1.458E+02   4.527E+01  6.241E-02 
1.475E+02   4.507E+01  6.192E-02 
1.492E+02   4.488E+01  6.143E-02 
1.509E+02   4.469E+01  6.094E-02 
1.526E+02   4.449E+01  6.046E-02 
1.544E+02   4.430E+01  5.998E-02 
1.562E+02   4.411E+01  5.950E-02 
1.580E+02   4.391E+01  5.903E-02 
1.598E+02   4.372E+01  5.856E-02 
1.617E+02   4.352E+01  5.809E-02 
1.636E+02   4.333E+01  5.763E-02 
1.655E+02   4.314E+01  5.716E-02 
1.674E+02   4.294E+01  5.671E-02 
1.693E+02   4.275E+01  5.625E-02 
1.713E+02   4.256E+01  5.580E-02 
1.733E+02   4.236E+01  5.535E-02 
1.753E+02   4.217E+01  5.490E-02 
1.773E+02   4.198E+01  5.598E-02 
1.794E+02   4.179E+01  5.553E-02 
1.815E+02   4.160E+01  5.508E-02 
1.836E+02   4.141E+01  5.463E-02 
1.857E+02   4.122E+01  5.418E-02 
1.879E+02   4.104E+01  5.374E-02 
1.900E+02   4.085E+01  5.330E-02 
1.922E+02   4.066E+01  5.286E-02 
1.945E+02   4.048E+01  5.243E-02 
1.967E+02   4.029E+01  5.200E-02 
1.990E+02   4.011E+01  5.157E-02 
2.013E+02   3.992E+01  5.115E-02 
2.036E+02   3.974E+01  5.073E-02 
2.060E+02   3.956E+01  5.031E-02 
2.084E+02   3.938E+01  4.989E-02 
2.108E+02   3.920E+01  4.948E-02 
2.133E+02   3.902E+01  4.907E-02 
2.157E+02   3.884E+01  4.866E-02 
2.182E+02   3.867E+01  4.826E-02 
2.208E+02   3.849E+01  4.786E-02 
2.233E+02   3.832E+01  4.746E-02 
2.259E+02   3.814E+01  4.706E-02 
2.285E+02   3.797E+01  4.667E-02 
2.312E+02   3.779E+01  4.628E-02 
2.339E+02   3.762E+01  4.589E-02 
2.366E+02   3.745E+01  4.551E-02 
2.393E+02   3.728E+01  4.513E-02 
2.421E+02   3.711E+01  4.475E-02 
2.449E+02   3.694E+01  4.437E-02 
2.478E+02   3.678E+01  4.400E-02 
2.506E+02   3.661E+01  4.363E-02 
2.535E+02   3.644E+01  4.326E-02 
2.565E+02   3.628E+01  4.290E-02 
2.595E+02   3.611E+01  4.253E-02 
2.625E+02   3.595E+01  4.217E-02 
2.655E+02   3.579E+01  4.182E-02 
2.686E+02   3.562E+01  4.146E-02 
2.717E+02   3.546E+01  4.111E-02 
2.749E+02   3.530E+01  4.076E-02 
2.780E+02   3.514E+01  4.041E-02 
2.813E+02   3.498E+01  4.007E-02 
2.845E+02   3.482E+01  3.973E-02 
2.878E+02   3.466E+01  3.939E-02 
2.912E+02   3.451E+01  3.905E-02 
2.945E+02   3.435E+01  3.872E-02 
2.980E+02   3.419E+01  3.839E-02 
3.014E+02   3.404E+01  3.806E-02 
3.049E+02   3.388E+01  3.773E-02 
3.085E+02   3.373E+01  3.741E-02 
3.120E+02   3.357E+01  3.709E-02 
3.156E+02   3.342E+01  3.677E-02 
3.193E+02   3.326E+01  3.645E-02 
3.230E+02   3.311E+01  3.614E-02 
3.268E+02   3.296E+01  3.583E-02 
3.306E+02   3.281E+01  3.552E-02 
3.344E+02   3.266E+01  3.521E-02 
3.383E+02   3.250E+01  3.491E-02 
3.422E+02   3.235E+01  3.461E-02 
3.462E+02   3.220E+01  3.431E-02 
3.502E+02   3.205E+01  3.401E-02 
3.542E+02   3.190E+01  3.371E-02 
3.583E+02   3.175E+01  3.342E-02 
3.625E+02   3.160E+01  3.313E-02 
3.667E+02   3.146E+01  3.284E-02 
3.710E+02   3.131E+01  3.255E-02 
3.753E+02   3.116E+01  3.227E-02 
3.796E+02   3.101E+01  3.199E-02 
3.840E+02   3.086E+01  3.171E-02 
3.885E+02   3.072E+01  3.143E-02 
3.930E+02   3.057E+01  3.116E-02 
3.975E+02   3.042E+01  3.089E-02 
4.021E+02   3.028E+01  3.061E-02 
4.068E+02   3.013E+01  3.035E-02 
4.115E+02   2.998E+01  3.008E-02 
4.163E+02   2.984E+01  2.982E-02 
4.211E+02   2.969E+01  2.955E-02 
4.260E+02   2.955E+01  2.929E-02 
4.310E+02   2.940E+01  2.904E-02 
4.360E+02   2.925E+01  2.878E-02 
4.410E+02   2.911E+01  2.853E-02 
4.461E+02   2.897E+01  2.827E-02 
4.513E+02   2.882E+01  2.802E-02 
4.565E+02   2.868E+01  2.778E-02 
4.618E+02   2.853E+01  2.753E-02 
4.672E+02   2.839E+01  2.729E-02 
4.726E+02   2.824E+01  2.704E-02 
4.781E+02   2.810E+01  2.680E-02 
4.836E+02   2.796E+01  2.657E-02 
4.892E+02   2.781E+01  2.633E-02 
4.949E+02   2.767E+01  2.610E-02 
5.007E+02   2.753E+01  2.586E-02 
5.065E+02   2.738E+01  2.563E-02 
5.123E+02   2.724E+01  2.541E-02 
5.183E+02   2.710E+01  2.518E-02 
5.243E+02   2.696E+01  2.495E-02 
5.304E+02   2.681E+01  2.473E-02 
5.365E+02   2.667E+01  2.451E-02 
5.428E+02   2.653E+01  2.429E-02 
5.490E+02   2.639E+01  2.407E-02 
5.554E+02   2.624E+01  2.386E-02 
5.619E+02   2.610E+01  2.365E-02 
5.684E+02   2.596E+01  2.343E-02 
5.750E+02   2.582E+01  2.322E-02 
5.816E+02   2.568E+01  2.301E-02 
5.884E+02   2.554E+01  2.281E-02 
5.952E+02   2.540E+01  2.260E-02 
6.021E+02   2.526E+01  2.240E-02 
6.091E+02   2.512E+01  2.220E-02 
6.162E+02   2.498E+01  2.200E-02 
6.233E+02   2.484E+01  2.180E-02 
6.305E+02   2.470E+01  2.160E-02 
6.378E+02   2.456E+01  2.141E-02 
6.452E+02   2.442E+01  2.121E-02 
6.527E+02   2.428E+01  2.102E-02 
6.603E+02   2.414E+01  2.083E-02 
6.680E+02   2.400E+01  2.064E-02 
6.757E+02   2.386E+01  2.046E-02 
6.835E+02   2.372E+01  2.027E-02 
6.915E+02   2.359E+01  2.009E-02 
6.995E+02   2.345E+01  1.990E-02 
7.076E+02   2.331E+01  1.972E-02 
7.158E+02   2.317E+01  1.954E-02 
7.241E+02   2.304E+01  1.937E-02 
7.325E+02   2.290E+01  1.919E-02 
7.410E+02   2.276E+01  1.902E-02 
7.496E+02   2.263E+01  1.884E-02 
7.583E+02   2.249E+01  1.867E-02 
7.671E+02   2.235E+01  1.850E-02 
7.760E+02   2.222E+01  1.833E-02 
7.850E+02   2.208E+01  1.816E-02 
7.941E+02   2.195E+01  1.800E-02 
8.033E+02   2.181E+01  1.783E-02 
8.126E+02   2.168E+01  1.767E-02 
8.221E+02   2.155E+01  1.751E-02 
8.316E+02   2.141E+01  1.735E-02 
