Ion = Hydrogen    . Mass = 1.0079
Tgt =  Y (Solid). Density = 4.469 g/cm3
Stopping Units =  eV/(1E15 atoms/cm2)
Energy(keV)  S(Elec)    S(Nuc)
1.000E+00   7.788E+00  3.749E-01 
1.012E+00   7.833E+00  3.751E-01 
1.023E+00   7.878E+00  3.752E-01 
1.035E+00   7.924E+00  3.753E-01 
1.047E+00   7.970E+00  3.754E-01 
1.059E+00   8.016E+00  3.755E-01 
1.072E+00   8.062E+00  3.755E-01 
1.084E+00   8.109E+00  3.756E-01 
1.097E+00   8.156E+00  3.757E-01 
1.109E+00   8.203E+00  3.758E-01 
1.122E+00   8.250E+00  3.758E-01 
1.135E+00   8.298E+00  3.759E-01 
1.148E+00   8.346E+00  3.759E-01 
1.162E+00   8.394E+00  3.759E-01 
1.175E+00   8.443E+00  3.760E-01 
1.189E+00   8.492E+00  3.760E-01 
1.203E+00   8.541E+00  3.760E-01 
1.217E+00   8.590E+00  3.760E-01 
1.231E+00   8.640E+00  3.760E-01 
1.245E+00   8.690E+00  3.760E-01 
1.259E+00   8.740E+00  3.759E-01 
1.274E+00   8.791E+00  3.759E-01 
1.289E+00   8.841E+00  3.759E-01 
1.304E+00   8.893E+00  3.758E-01 
1.319E+00   8.944E+00  3.758E-01 
1.334E+00   8.996E+00  3.757E-01 
1.350E+00   9.048E+00  3.757E-01 
1.365E+00   9.100E+00  3.756E-01 
1.381E+00   9.153E+00  3.755E-01 
1.397E+00   9.206E+00  3.754E-01 
1.413E+00   9.259E+00  3.753E-01 
1.430E+00   9.312E+00  3.752E-01 
1.446E+00   9.366E+00  3.751E-01 
1.463E+00   9.420E+00  3.750E-01 
1.480E+00   9.475E+00  3.749E-01 
1.497E+00   9.530E+00  3.747E-01 
1.515E+00   9.585E+00  3.746E-01 
1.532E+00   9.640E+00  3.744E-01 
1.550E+00   9.696E+00  3.743E-01 
1.568E+00   9.752E+00  3.741E-01 
1.586E+00   9.808E+00  3.739E-01 
1.605E+00   9.865E+00  3.738E-01 
1.623E+00   9.922E+00  3.736E-01 
1.642E+00   9.980E+00  3.734E-01 
1.661E+00   1.004E+01  3.732E-01 
1.680E+00   1.010E+01  3.729E-01 
1.700E+00   1.015E+01  3.727E-01 
1.719E+00   1.021E+01  3.725E-01 
1.739E+00   1.027E+01  3.722E-01 
1.760E+00   1.033E+01  3.720E-01 
1.780E+00   1.039E+01  3.717E-01 
1.801E+00   1.045E+01  3.715E-01 
1.822E+00   1.051E+01  3.712E-01 
1.843E+00   1.057E+01  3.709E-01 
1.864E+00   1.063E+01  3.706E-01 
1.886E+00   1.069E+01  3.704E-01 
1.908E+00   1.076E+01  3.700E-01 
1.930E+00   1.082E+01  3.697E-01 
1.952E+00   1.088E+01  3.694E-01 
1.975E+00   1.094E+01  3.691E-01 
1.998E+00   1.101E+01  3.688E-01 
2.021E+00   1.107E+01  3.684E-01 
2.044E+00   1.112E+01  3.681E-01 
2.068E+00   1.117E+01  3.677E-01 
2.092E+00   1.122E+01  3.673E-01 
2.116E+00   1.127E+01  3.670E-01 
2.141E+00   1.132E+01  3.666E-01 
2.166E+00   1.137E+01  3.662E-01 
2.191E+00   1.143E+01  3.658E-01 
2.216E+00   1.148E+01  3.654E-01 
2.242E+00   1.153E+01  3.650E-01 
2.268E+00   1.158E+01  3.645E-01 
2.294E+00   1.164E+01  3.641E-01 
2.321E+00   1.169E+01  3.637E-01 
2.348E+00   1.174E+01  3.632E-01 
2.375E+00   1.180E+01  3.628E-01 
2.402E+00   1.185E+01  3.623E-01 
2.430E+00   1.190E+01  3.618E-01 
2.458E+00   1.196E+01  3.613E-01 
2.487E+00   1.201E+01  3.609E-01 
2.516E+00   1.207E+01  3.604E-01 
2.545E+00   1.212E+01  3.599E-01 
2.574E+00   1.218E+01  3.593E-01 
2.604E+00   1.223E+01  3.588E-01 
2.635E+00   1.229E+01  3.583E-01 
2.665E+00   1.235E+01  3.578E-01 
2.696E+00   1.240E+01  3.572E-01 
2.727E+00   1.246E+01  3.567E-01 
2.759E+00   1.252E+01  3.561E-01 
2.791E+00   1.257E+01  3.555E-01 
2.823E+00   1.263E+01  3.550E-01 
2.856E+00   1.269E+01  3.544E-01 
2.889E+00   1.275E+01  3.538E-01 
2.923E+00   1.281E+01  3.532E-01 
2.957E+00   1.286E+01  3.526E-01 
2.991E+00   1.292E+01  3.520E-01 
3.026E+00   1.298E+01  3.514E-01 
3.061E+00   1.304E+01  3.507E-01 
3.096E+00   1.310E+01  3.501E-01 
3.132E+00   1.316E+01  3.495E-01 
3.168E+00   1.322E+01  3.488E-01 
3.205E+00   1.328E+01  3.481E-01 
3.242E+00   1.334E+01  3.475E-01 
3.280E+00   1.340E+01  3.468E-01 
3.318E+00   1.346E+01  3.461E-01 
3.356E+00   1.353E+01  3.454E-01 
3.395E+00   1.359E+01  3.447E-01 
3.435E+00   1.365E+01  3.440E-01 
3.475E+00   1.371E+01  3.433E-01 
3.515E+00   1.378E+01  3.426E-01 
3.556E+00   1.384E+01  3.419E-01 
3.597E+00   1.390E+01  3.412E-01 
3.639E+00   1.397E+01  3.404E-01 
3.681E+00   1.403E+01  3.397E-01 
3.724E+00   1.409E+01  3.389E-01 
3.767E+00   1.416E+01  3.382E-01 
3.810E+00   1.422E+01  3.374E-01 
3.855E+00   1.429E+01  3.366E-01 
3.899E+00   1.435E+01  3.359E-01 
3.945E+00   1.442E+01  3.351E-01 
3.990E+00   1.449E+01  3.343E-01 
4.037E+00   1.455E+01  3.335E-01 
4.083E+00   1.462E+01  3.327E-01 
4.131E+00   1.469E+01  3.319E-01 
4.179E+00   1.475E+01  3.310E-01 
4.227E+00   1.482E+01  3.302E-01 
4.276E+00   1.489E+01  3.294E-01 
4.326E+00   1.496E+01  3.285E-01 
4.376E+00   1.502E+01  3.277E-01 
4.427E+00   1.509E+01  3.269E-01 
4.478E+00   1.516E+01  3.260E-01 
4.530E+00   1.523E+01  3.251E-01 
4.583E+00   1.530E+01  3.243E-01 
4.636E+00   1.537E+01  3.234E-01 
4.690E+00   1.544E+01  3.225E-01 
4.744E+00   1.551E+01  3.216E-01 
4.799E+00   1.558E+01  3.207E-01 
4.855E+00   1.565E+01  3.198E-01 
4.911E+00   1.573E+01  3.189E-01 
4.968E+00   1.580E+01  3.180E-01 
5.026E+00   1.587E+01  3.171E-01 
5.084E+00   1.594E+01  3.162E-01 
5.143E+00   1.601E+01  3.153E-01 
5.202E+00   1.609E+01  3.143E-01 
5.263E+00   1.616E+01  3.134E-01 
5.324E+00   1.623E+01  3.124E-01 
5.386E+00   1.631E+01  3.115E-01 
5.448E+00   1.638E+01  3.105E-01 
5.511E+00   1.646E+01  3.096E-01 
5.575E+00   1.653E+01  3.086E-01 
5.640E+00   1.661E+01  3.077E-01 
5.705E+00   1.668E+01  3.067E-01 
5.771E+00   1.676E+01  3.057E-01 
5.838E+00   1.684E+01  3.047E-01 
5.906E+00   1.691E+01  3.037E-01 
5.975E+00   1.699E+01  3.027E-01 
6.044E+00   1.707E+01  3.017E-01 
6.114E+00   1.715E+01  3.007E-01 
6.185E+00   1.722E+01  2.997E-01 
6.257E+00   1.730E+01  2.987E-01 
6.329E+00   1.738E+01  2.977E-01 
6.403E+00   1.746E+01  2.967E-01 
6.477E+00   1.754E+01  2.957E-01 
6.552E+00   1.762E+01  2.946E-01 
6.628E+00   1.770E+01  2.936E-01 
6.705E+00   1.778E+01  2.926E-01 
6.783E+00   1.786E+01  2.915E-01 
6.861E+00   1.794E+01  2.905E-01 
6.941E+00   1.802E+01  2.895E-01 
7.021E+00   1.810E+01  2.884E-01 
7.103E+00   1.819E+01  2.874E-01 
7.185E+00   1.827E+01  2.863E-01 
7.269E+00   1.835E+01  2.852E-01 
7.353E+00   1.843E+01  2.842E-01 
7.438E+00   1.852E+01  2.831E-01 
7.524E+00   1.860E+01  2.820E-01 
7.612E+00   1.868E+01  2.810E-01 
7.700E+00   1.877E+01  2.799E-01 
7.789E+00   1.885E+01  2.788E-01 
7.880E+00   1.894E+01  2.777E-01 
7.971E+00   1.902E+01  2.766E-01 
8.064E+00   1.911E+01  2.756E-01 
8.157E+00   1.920E+01  2.745E-01 
8.252E+00   1.928E+01  2.734E-01 
8.347E+00   1.937E+01  2.723E-01 
8.444E+00   1.946E+01  2.712E-01 
8.542E+00   1.954E+01  2.701E-01 
8.641E+00   1.963E+01  2.690E-01 
8.741E+00   1.972E+01  2.679E-01 
8.843E+00   1.981E+01  2.668E-01 
8.945E+00   1.990E+01  2.657E-01 
9.049E+00   1.999E+01  2.646E-01 
9.154E+00   2.007E+01  2.634E-01 
9.260E+00   2.016E+01  2.623E-01 
9.368E+00   2.025E+01  2.612E-01 
9.476E+00   2.035E+01  2.601E-01 
9.586E+00   2.044E+01  2.590E-01 
9.698E+00   2.053E+01  2.579E-01 
9.810E+00   2.062E+01  2.567E-01 
9.924E+00   2.071E+01  2.556E-01 
1.004E+01   2.080E+01  2.545E-01 
1.016E+01   2.090E+01  2.534E-01 
1.027E+01   2.099E+01  2.522E-01 
1.039E+01   2.108E+01  2.511E-01 
1.051E+01   2.117E+01  2.500E-01 
1.063E+01   2.127E+01  2.488E-01 
1.076E+01   2.136E+01  2.477E-01 
1.088E+01   2.146E+01  2.466E-01 
1.101E+01   2.155E+01  2.454E-01 
1.114E+01   2.165E+01  2.443E-01 
1.127E+01   2.174E+01  2.432E-01 
1.140E+01   2.184E+01  2.420E-01 
1.153E+01   2.193E+01  2.409E-01 
1.166E+01   2.203E+01  2.398E-01 
1.180E+01   2.213E+01  2.386E-01 
1.193E+01   2.222E+01  2.375E-01 
1.207E+01   2.232E+01  2.364E-01 
1.221E+01   2.242E+01  2.352E-01 
1.235E+01   2.252E+01  2.341E-01 
1.250E+01   2.262E+01  2.329E-01 
1.264E+01   2.271E+01  2.318E-01 
1.279E+01   2.281E+01  2.307E-01 
1.294E+01   2.291E+01  2.295E-01 
1.309E+01   2.301E+01  2.284E-01 
1.324E+01   2.311E+01  2.273E-01 
1.339E+01   2.321E+01  2.261E-01 
1.355E+01   2.331E+01  2.250E-01 
1.371E+01   2.341E+01  2.239E-01 
1.387E+01   2.352E+01  2.227E-01 
1.403E+01   2.362E+01  2.216E-01 
1.419E+01   2.372E+01  2.205E-01 
1.435E+01   2.382E+01  2.193E-01 
1.452E+01   2.392E+01  2.182E-01 
1.469E+01   2.402E+01  2.171E-01 
1.486E+01   2.413E+01  2.159E-01 
1.503E+01   2.423E+01  2.148E-01 
1.521E+01   2.433E+01  2.137E-01 
1.538E+01   2.444E+01  2.126E-01 
1.556E+01   2.454E+01  2.114E-01 
1.574E+01   2.465E+01  2.103E-01 
1.592E+01   2.475E+01  2.092E-01 
1.611E+01   2.485E+01  2.081E-01 
1.629E+01   2.496E+01  2.070E-01 
1.648E+01   2.507E+01  2.058E-01 
1.667E+01   2.517E+01  2.047E-01 
1.687E+01   2.528E+01  2.036E-01 
1.706E+01   2.538E+01  2.025E-01 
1.726E+01   2.549E+01  2.014E-01 
1.746E+01   2.559E+01  2.003E-01 
1.766E+01   2.570E+01  1.992E-01 
1.787E+01   2.581E+01  1.981E-01 
1.808E+01   2.592E+01  1.970E-01 
1.829E+01   2.602E+01  1.959E-01 
1.850E+01   2.613E+01  1.948E-01 
1.871E+01   2.624E+01  1.937E-01 
1.893E+01   2.635E+01  1.926E-01 
1.915E+01   2.645E+01  1.915E-01 
1.937E+01   2.656E+01  1.904E-01 
1.960E+01   2.667E+01  1.893E-01 
1.982E+01   2.678E+01  1.882E-01 
2.005E+01   2.689E+01  1.871E-01 
2.029E+01   2.700E+01  1.860E-01 
2.052E+01   2.711E+01  1.850E-01 
2.076E+01   2.722E+01  1.839E-01 
2.100E+01   2.732E+01  1.828E-01 
2.124E+01   2.743E+01  1.817E-01 
2.149E+01   2.754E+01  1.807E-01 
2.174E+01   2.765E+01  1.796E-01 
2.199E+01   2.776E+01  1.785E-01 
2.225E+01   2.787E+01  1.775E-01 
2.250E+01   2.798E+01  1.764E-01 
2.277E+01   2.809E+01  1.754E-01 
2.303E+01   2.820E+01  1.743E-01 
2.330E+01   2.832E+01  1.733E-01 
2.357E+01   2.843E+01  1.722E-01 
2.384E+01   2.854E+01  1.712E-01 
2.412E+01   2.865E+01  1.701E-01 
2.440E+01   2.876E+01  1.691E-01 
2.468E+01   2.887E+01  1.681E-01 
2.497E+01   2.898E+01  1.670E-01 
2.526E+01   2.909E+01  1.660E-01 
2.555E+01   2.920E+01  1.650E-01 
2.584E+01   2.931E+01  1.640E-01 
2.614E+01   2.942E+01  1.629E-01 
2.645E+01   2.953E+01  1.619E-01 
2.675E+01   2.965E+01  1.609E-01 
2.707E+01   2.976E+01  1.599E-01 
2.738E+01   2.987E+01  1.589E-01 
2.770E+01   2.998E+01  1.579E-01 
2.802E+01   3.009E+01  1.569E-01 
2.834E+01   3.020E+01  1.559E-01 
2.867E+01   3.031E+01  1.549E-01 
2.900E+01   3.042E+01  1.539E-01 
2.934E+01   3.053E+01  1.529E-01 
2.968E+01   3.064E+01  1.520E-01 
3.003E+01   3.075E+01  1.510E-01 
3.037E+01   3.086E+01  1.500E-01 
3.073E+01   3.097E+01  1.490E-01 
3.108E+01   3.108E+01  1.481E-01 
3.144E+01   3.119E+01  1.471E-01 
3.181E+01   3.130E+01  1.462E-01 
3.218E+01   3.141E+01  1.452E-01 
3.255E+01   3.152E+01  1.443E-01 
3.293E+01   3.163E+01  1.433E-01 
3.331E+01   3.174E+01  1.424E-01 
3.370E+01   3.184E+01  1.414E-01 
3.409E+01   3.195E+01  1.405E-01 
3.448E+01   3.206E+01  1.396E-01 
3.488E+01   3.217E+01  1.386E-01 
3.529E+01   3.227E+01  1.377E-01 
3.570E+01   3.238E+01  1.368E-01 
3.611E+01   3.249E+01  1.359E-01 
3.653E+01   3.259E+01  1.349E-01 
3.695E+01   3.270E+01  1.340E-01 
3.738E+01   3.281E+01  1.331E-01 
3.781E+01   3.291E+01  1.322E-01 
3.825E+01   3.302E+01  1.313E-01 
3.870E+01   3.312E+01  1.304E-01 
3.915E+01   3.322E+01  1.295E-01 
3.960E+01   3.333E+01  1.287E-01 
4.006E+01   3.343E+01  1.278E-01 
4.052E+01   3.353E+01  1.269E-01 
4.099E+01   3.363E+01  1.260E-01 
4.147E+01   3.374E+01  1.252E-01 
4.195E+01   3.384E+01  1.243E-01 
4.244E+01   3.394E+01  1.234E-01 
4.293E+01   3.404E+01  1.226E-01 
4.343E+01   3.414E+01  1.217E-01 
4.393E+01   3.423E+01  1.209E-01 
4.444E+01   3.433E+01  1.200E-01 
4.496E+01   3.443E+01  1.192E-01 
4.548E+01   3.453E+01  1.183E-01 
4.600E+01   3.462E+01  1.175E-01 
4.654E+01   3.472E+01  1.167E-01 
4.708E+01   3.481E+01  1.159E-01 
4.762E+01   3.491E+01  1.150E-01 
4.818E+01   3.500E+01  1.142E-01 
4.873E+01   3.509E+01  1.134E-01 
4.930E+01   3.518E+01  1.126E-01 
4.987E+01   3.527E+01  1.118E-01 
5.045E+01   3.536E+01  1.110E-01 
5.104E+01   3.545E+01  1.102E-01 
5.163E+01   3.554E+01  1.094E-01 
5.223E+01   3.563E+01  1.086E-01 
5.283E+01   3.571E+01  1.078E-01 
5.344E+01   3.580E+01  1.071E-01 
5.406E+01   3.588E+01  1.063E-01 
5.469E+01   3.597E+01  1.055E-01 
5.533E+01   3.605E+01  1.047E-01 
5.597E+01   3.613E+01  1.040E-01 
5.662E+01   3.621E+01  1.032E-01 
5.727E+01   3.629E+01  1.025E-01 
5.794E+01   3.637E+01  1.017E-01 
5.861E+01   3.644E+01  1.010E-01 
5.929E+01   3.652E+01  1.002E-01 
5.998E+01   3.659E+01  9.948E-02 
6.067E+01   3.667E+01  9.875E-02 
6.138E+01   3.674E+01  9.801E-02 
6.209E+01   3.681E+01  9.729E-02 
6.281E+01   3.688E+01  9.657E-02 
6.354E+01   3.695E+01  9.585E-02 
6.427E+01   3.702E+01  9.513E-02 
6.502E+01   3.708E+01  9.442E-02 
6.577E+01   3.715E+01  9.372E-02 
6.654E+01   3.721E+01  9.301E-02 
6.731E+01   3.727E+01  9.232E-02 
6.809E+01   3.733E+01  9.162E-02 
6.888E+01   3.739E+01  9.093E-02 
6.968E+01   3.745E+01  9.025E-02 
7.049E+01   3.750E+01  8.956E-02 
7.130E+01   3.756E+01  8.889E-02 
7.213E+01   3.761E+01  8.821E-02 
7.297E+01   3.766E+01  8.754E-02 
7.381E+01   3.771E+01  8.688E-02 
7.467E+01   3.776E+01  8.621E-02 
7.554E+01   3.781E+01  8.556E-02 
7.641E+01   3.785E+01  8.490E-02 
7.730E+01   3.790E+01  8.425E-02 
7.820E+01   3.794E+01  8.361E-02 
7.910E+01   3.798E+01  8.296E-02 
8.002E+01   3.802E+01  8.233E-02 
8.095E+01   3.805E+01  8.169E-02 
8.189E+01   3.809E+01  8.106E-02 
8.284E+01   3.812E+01  8.044E-02 
8.380E+01   3.815E+01  7.981E-02 
8.477E+01   3.818E+01  7.919E-02 
8.575E+01   3.821E+01  7.858E-02 
8.675E+01   3.824E+01  7.797E-02 
8.775E+01   3.826E+01  7.736E-02 
8.877E+01   3.828E+01  7.676E-02 
8.980E+01   3.830E+01  7.616E-02 
9.084E+01   3.832E+01  7.556E-02 
9.190E+01   3.834E+01  7.497E-02 
9.296E+01   3.835E+01  7.438E-02 
9.404E+01   3.836E+01  7.380E-02 
9.513E+01   3.837E+01  7.322E-02 
9.624E+01   3.838E+01  7.264E-02 
9.735E+01   3.839E+01  7.207E-02 
9.848E+01   3.839E+01  7.150E-02 
9.962E+01   3.839E+01  7.093E-02 
1.008E+02   3.839E+01  7.037E-02 
1.019E+02   3.839E+01  6.981E-02 
1.031E+02   3.839E+01  6.926E-02 
1.043E+02   3.838E+01  6.871E-02 
1.055E+02   3.837E+01  6.816E-02 
1.068E+02   3.836E+01  6.761E-02 
1.080E+02   3.835E+01  6.707E-02 
1.093E+02   3.833E+01  6.654E-02 
1.105E+02   3.832E+01  6.600E-02 
1.118E+02   3.830E+01  6.548E-02 
1.131E+02   3.827E+01  6.495E-02 
1.144E+02   3.825E+01  6.443E-02 
1.157E+02   3.822E+01  6.391E-02 
1.171E+02   3.820E+01  6.339E-02 
1.184E+02   3.817E+01  6.288E-02 
1.198E+02   3.813E+01  6.237E-02 
1.212E+02   3.810E+01  6.299E-02 
1.226E+02   3.806E+01  6.248E-02 
1.240E+02   3.802E+01  6.197E-02 
1.255E+02   3.798E+01  6.147E-02 
1.269E+02   3.793E+01  6.097E-02 
1.284E+02   3.789E+01  6.047E-02 
1.299E+02   3.784E+01  5.997E-02 
1.314E+02   3.779E+01  5.948E-02 
1.329E+02   3.773E+01  5.900E-02 
1.345E+02   3.768E+01  5.851E-02 
1.360E+02   3.762E+01  5.803E-02 
1.376E+02   3.756E+01  5.755E-02 
1.392E+02   3.750E+01  5.708E-02 
1.408E+02   3.743E+01  5.661E-02 
1.424E+02   3.737E+01  5.614E-02 
1.441E+02   3.730E+01  5.568E-02 
1.458E+02   3.723E+01  5.522E-02 
1.475E+02   3.715E+01  5.476E-02 
1.492E+02   3.708E+01  5.430E-02 
1.509E+02   3.700E+01  5.385E-02 
1.526E+02   3.692E+01  5.340E-02 
1.544E+02   3.684E+01  5.296E-02 
1.562E+02   3.675E+01  5.252E-02 
1.580E+02   3.666E+01  5.208E-02 
1.598E+02   3.658E+01  5.164E-02 
1.617E+02   3.648E+01  5.121E-02 
1.636E+02   3.639E+01  5.078E-02 
1.655E+02   3.630E+01  5.036E-02 
1.674E+02   3.620E+01  4.993E-02 
1.693E+02   3.610E+01  4.951E-02 
1.713E+02   3.600E+01  4.910E-02 
1.733E+02   3.589E+01  4.868E-02 
1.753E+02   3.579E+01  4.827E-02 
1.773E+02   3.568E+01  4.787E-02 
1.794E+02   3.557E+01  4.746E-02 
1.815E+02   3.546E+01  4.706E-02 
1.836E+02   3.534E+01  4.666E-02 
1.857E+02   3.523E+01  4.626E-02 
1.879E+02   3.511E+01  4.587E-02 
1.900E+02   3.499E+01  4.548E-02 
1.922E+02   3.487E+01  4.509E-02 
1.945E+02   3.475E+01  4.471E-02 
1.967E+02   3.462E+01  4.433E-02 
1.990E+02   3.449E+01  4.395E-02 
2.013E+02   3.437E+01  4.358E-02 
2.036E+02   3.424E+01  4.320E-02 
2.060E+02   3.410E+01  4.283E-02 
2.084E+02   3.397E+01  4.247E-02 
2.108E+02   3.384E+01  4.210E-02 
2.133E+02   3.370E+01  4.174E-02 
2.157E+02   3.356E+01  4.138E-02 
2.182E+02   3.342E+01  4.103E-02 
2.208E+02   3.328E+01  4.067E-02 
2.233E+02   3.314E+01  4.032E-02 
2.259E+02   3.299E+01  3.997E-02 
2.285E+02   3.285E+01  3.963E-02 
2.312E+02   3.270E+01  3.929E-02 
2.339E+02   3.255E+01  3.895E-02 
2.366E+02   3.240E+01  3.861E-02 
2.393E+02   3.225E+01  3.827E-02 
2.421E+02   3.210E+01  3.794E-02 
2.449E+02   3.195E+01  3.761E-02 
2.478E+02   3.179E+01  3.729E-02 
2.506E+02   3.164E+01  3.696E-02 
2.535E+02   3.148E+01  3.664E-02 
2.565E+02   3.132E+01  3.632E-02 
2.595E+02   3.117E+01  3.600E-02 
2.625E+02   3.101E+01  3.569E-02 
2.655E+02   3.085E+01  3.538E-02 
2.686E+02   3.069E+01  3.507E-02 
2.717E+02   3.052E+01  3.476E-02 
2.749E+02   3.036E+01  3.446E-02 
2.780E+02   3.020E+01  3.416E-02 
2.813E+02   3.003E+01  3.386E-02 
2.845E+02   2.987E+01  3.356E-02 
2.878E+02   2.970E+01  3.326E-02 
2.912E+02   2.954E+01  3.297E-02 
2.945E+02   2.937E+01  3.268E-02 
2.980E+02   2.921E+01  3.239E-02 
3.014E+02   2.904E+01  3.211E-02 
3.049E+02   2.887E+01  3.182E-02 
3.085E+02   2.870E+01  3.154E-02 
3.120E+02   2.854E+01  3.126E-02 
3.156E+02   2.837E+01  3.099E-02 
3.193E+02   2.820E+01  3.071E-02 
3.230E+02   2.803E+01  3.044E-02 
3.268E+02   2.786E+01  3.017E-02 
3.306E+02   2.769E+01  2.990E-02 
3.344E+02   2.752E+01  2.964E-02 
3.383E+02   2.735E+01  2.937E-02 
3.422E+02   2.718E+01  2.911E-02 
3.462E+02   2.702E+01  2.885E-02 
3.502E+02   2.685E+01  2.860E-02 
3.542E+02   2.668E+01  2.834E-02 
3.583E+02   2.651E+01  2.809E-02 
3.625E+02   2.634E+01  2.784E-02 
3.667E+02   2.617E+01  2.759E-02 
3.710E+02   2.600E+01  2.734E-02 
3.753E+02   2.584E+01  2.710E-02 
3.796E+02   2.567E+01  2.686E-02 
3.840E+02   2.550E+01  2.662E-02 
3.885E+02   2.534E+01  2.638E-02 
3.930E+02   2.517E+01  2.614E-02 
3.975E+02   2.500E+01  2.591E-02 
4.021E+02   2.484E+01  2.567E-02 
4.068E+02   2.468E+01  2.544E-02 
4.115E+02   2.451E+01  2.521E-02 
4.163E+02   2.435E+01  2.499E-02 
4.211E+02   2.419E+01  2.476E-02 
4.260E+02   2.402E+01  2.454E-02 
4.310E+02   2.386E+01  2.432E-02 
4.360E+02   2.370E+01  2.410E-02 
4.410E+02   2.354E+01  2.388E-02 
4.461E+02   2.338E+01  2.366E-02 
4.513E+02   2.323E+01  2.345E-02 
4.565E+02   2.307E+01  2.324E-02 
4.618E+02   2.291E+01  2.303E-02 
4.672E+02   2.276E+01  2.282E-02 
4.726E+02   2.260E+01  2.261E-02 
4.781E+02   2.245E+01  2.241E-02 
4.836E+02   2.230E+01  2.220E-02 
4.892E+02   2.215E+01  2.200E-02 
4.949E+02   2.200E+01  2.180E-02 
5.007E+02   2.185E+01  2.160E-02 
5.065E+02   2.170E+01  2.141E-02 
5.123E+02   2.155E+01  2.121E-02 
5.183E+02   2.141E+01  2.102E-02 
5.243E+02   2.126E+01  2.083E-02 
5.304E+02   2.112E+01  2.064E-02 
5.365E+02   2.098E+01  2.045E-02 
5.428E+02   2.083E+01  2.026E-02 
5.490E+02   2.069E+01  2.008E-02 
5.554E+02   2.055E+01  1.989E-02 
5.619E+02   2.042E+01  1.971E-02 
5.684E+02   2.028E+01  1.953E-02 
5.750E+02   2.014E+01  1.935E-02 
5.816E+02   2.001E+01  1.917E-02 
5.884E+02   1.988E+01  1.900E-02 
5.952E+02   1.975E+01  1.882E-02 
6.021E+02   1.962E+01  1.865E-02 
6.091E+02   1.949E+01  1.848E-02 
6.162E+02   1.936E+01  1.831E-02 
6.233E+02   1.923E+01  1.814E-02 
6.305E+02   1.911E+01  1.797E-02 
6.378E+02   1.898E+01  1.781E-02 
6.452E+02   1.886E+01  1.764E-02 
6.527E+02   1.874E+01  1.748E-02 
6.603E+02   1.862E+01  1.732E-02 
6.680E+02   1.850E+01  1.716E-02 
6.757E+02   1.838E+01  1.700E-02 
6.835E+02   1.827E+01  1.684E-02 
6.915E+02   1.815E+01  1.669E-02 
6.995E+02   1.804E+01  1.653E-02 
7.076E+02   1.793E+01  1.638E-02 
7.158E+02   1.782E+01  1.623E-02 
7.241E+02   1.771E+01  1.608E-02 
7.325E+02   1.760E+01  1.593E-02 
7.410E+02   1.749E+01  1.578E-02 
7.496E+02   1.739E+01  1.564E-02 
7.583E+02   1.728E+01  1.549E-02 
7.671E+02   1.718E+01  1.535E-02 
7.760E+02   1.708E+01  1.520E-02 
7.850E+02   1.698E+01  1.506E-02 
7.941E+02   1.688E+01  1.492E-02 
8.033E+02   1.678E+01  1.478E-02 
8.126E+02   1.668E+01  1.465E-02 
8.221E+02   1.659E+01  1.451E-02 
8.316E+02   1.649E+01  1.437E-02 
