Ion = Helium      . Mass = 4.0026
Tgt = Bi (Solid). Density = 9.8 g/cm3
Stopping Units =  eV/(1E15 atoms/cm2)
Energy(keV)  S(Elec)    S(Nuc)
1.000E+00   6.848E+00  1.698E+00 
1.013E+00   6.893E+00  1.703E+00 
1.026E+00   6.937E+00  1.708E+00 
1.039E+00   6.982E+00  1.713E+00 
1.053E+00   7.028E+00  1.718E+00 
1.067E+00   7.073E+00  1.723E+00 
1.081E+00   7.119E+00  1.728E+00 
1.095E+00   7.165E+00  1.732E+00 
1.109E+00   7.211E+00  1.737E+00 
1.123E+00   7.258E+00  1.742E+00 
1.138E+00   7.305E+00  1.747E+00 
1.153E+00   7.353E+00  1.752E+00 
1.168E+00   7.400E+00  1.756E+00 
1.183E+00   7.448E+00  1.761E+00 
1.198E+00   7.496E+00  1.766E+00 
1.214E+00   7.545E+00  1.770E+00 
1.229E+00   7.594E+00  1.775E+00 
1.245E+00   7.643E+00  1.780E+00 
1.262E+00   7.692E+00  1.784E+00 
1.278E+00   7.742E+00  1.789E+00 
1.295E+00   7.792E+00  1.793E+00 
1.311E+00   7.843E+00  1.798E+00 
1.329E+00   7.894E+00  1.803E+00 
1.346E+00   7.945E+00  1.807E+00 
1.363E+00   7.996E+00  1.812E+00 
1.381E+00   8.048E+00  1.816E+00 
1.399E+00   8.100E+00  1.821E+00 
1.417E+00   8.153E+00  1.825E+00 
1.436E+00   8.205E+00  1.829E+00 
1.454E+00   8.259E+00  1.834E+00 
1.473E+00   8.312E+00  1.838E+00 
1.492E+00   8.366E+00  1.843E+00 
1.512E+00   8.420E+00  1.847E+00 
1.531E+00   8.475E+00  1.851E+00 
1.551E+00   8.530E+00  1.856E+00 
1.571E+00   8.585E+00  1.860E+00 
1.592E+00   8.640E+00  1.864E+00 
1.612E+00   8.696E+00  1.868E+00 
1.633E+00   8.753E+00  1.872E+00 
1.655E+00   8.809E+00  1.877E+00 
1.676E+00   8.866E+00  1.881E+00 
1.698E+00   8.924E+00  1.885E+00 
1.720E+00   8.982E+00  1.889E+00 
1.742E+00   9.040E+00  1.893E+00 
1.765E+00   9.098E+00  1.897E+00 
1.788E+00   9.157E+00  1.901E+00 
1.811E+00   9.217E+00  1.905E+00 
1.835E+00   9.276E+00  1.909E+00 
1.859E+00   9.336E+00  1.913E+00 
1.883E+00   9.397E+00  1.917E+00 
1.907E+00   9.458E+00  1.921E+00 
1.932E+00   9.519E+00  1.925E+00 
1.957E+00   9.581E+00  1.929E+00 
1.983E+00   9.643E+00  1.932E+00 
2.008E+00   9.705E+00  1.936E+00 
2.034E+00   9.768E+00  1.940E+00 
2.061E+00   9.831E+00  1.944E+00 
2.088E+00   9.895E+00  1.947E+00 
2.115E+00   9.959E+00  1.951E+00 
2.142E+00   1.002E+01  1.955E+00 
2.170E+00   1.009E+01  1.958E+00 
2.198E+00   1.015E+01  1.962E+00 
2.227E+00   1.022E+01  1.965E+00 
2.256E+00   1.029E+01  1.969E+00 
2.285E+00   1.035E+01  1.972E+00 
2.315E+00   1.042E+01  1.976E+00 
2.345E+00   1.049E+01  1.979E+00 
2.375E+00   1.056E+01  1.983E+00 
2.406E+00   1.062E+01  1.986E+00 
2.438E+00   1.069E+01  1.989E+00 
2.469E+00   1.076E+01  1.993E+00 
2.501E+00   1.083E+01  1.996E+00 
2.534E+00   1.090E+01  1.999E+00 
2.567E+00   1.097E+01  2.002E+00 
2.600E+00   1.104E+01  2.005E+00 
2.634E+00   1.111E+01  2.009E+00 
2.668E+00   1.119E+01  2.012E+00 
2.703E+00   1.126E+01  2.015E+00 
2.738E+00   1.133E+01  2.018E+00 
2.773E+00   1.141E+01  2.021E+00 
2.810E+00   1.148E+01  2.024E+00 
2.846E+00   1.155E+01  2.027E+00 
2.883E+00   1.163E+01  2.029E+00 
2.921E+00   1.170E+01  2.032E+00 
2.958E+00   1.178E+01  2.035E+00 
2.997E+00   1.186E+01  2.038E+00 
3.036E+00   1.193E+01  2.041E+00 
3.075E+00   1.201E+01  2.043E+00 
3.115E+00   1.209E+01  2.046E+00 
3.156E+00   1.217E+01  2.049E+00 
3.197E+00   1.224E+01  2.051E+00 
3.238E+00   1.232E+01  2.054E+00 
3.280E+00   1.240E+01  2.056E+00 
3.323E+00   1.248E+01  2.059E+00 
3.366E+00   1.257E+01  2.061E+00 
3.410E+00   1.265E+01  2.063E+00 
3.454E+00   1.273E+01  2.066E+00 
3.499E+00   1.281E+01  2.068E+00 
3.545E+00   1.289E+01  2.070E+00 
3.591E+00   1.298E+01  2.073E+00 
3.637E+00   1.306E+01  2.075E+00 
3.685E+00   1.315E+01  2.077E+00 
3.733E+00   1.323E+01  2.079E+00 
3.781E+00   1.332E+01  2.081E+00 
3.830E+00   1.340E+01  2.083E+00 
3.880E+00   1.349E+01  2.085E+00 
3.930E+00   1.358E+01  2.087E+00 
3.982E+00   1.367E+01  2.089E+00 
4.033E+00   1.375E+01  2.091E+00 
4.086E+00   1.384E+01  2.092E+00 
4.139E+00   1.393E+01  2.094E+00 
4.193E+00   1.402E+01  2.096E+00 
4.247E+00   1.411E+01  2.098E+00 
4.302E+00   1.421E+01  2.099E+00 
4.358E+00   1.430E+01  2.101E+00 
4.415E+00   1.439E+01  2.102E+00 
4.472E+00   1.448E+01  2.104E+00 
4.530E+00   1.458E+01  2.105E+00 
4.589E+00   1.467E+01  2.107E+00 
4.649E+00   1.477E+01  2.108E+00 
4.709E+00   1.486E+01  2.109E+00 
4.770E+00   1.496E+01  2.111E+00 
4.832E+00   1.505E+01  2.112E+00 
4.895E+00   1.515E+01  2.113E+00 
4.959E+00   1.525E+01  2.114E+00 
5.023E+00   1.535E+01  2.115E+00 
5.089E+00   1.545E+01  2.116E+00 
5.155E+00   1.555E+01  2.117E+00 
5.222E+00   1.565E+01  2.118E+00 
5.290E+00   1.575E+01  2.119E+00 
5.358E+00   1.585E+01  2.120E+00 
5.428E+00   1.596E+01  2.120E+00 
5.499E+00   1.606E+01  2.121E+00 
5.570E+00   1.616E+01  2.122E+00 
5.642E+00   1.627E+01  2.122E+00 
5.716E+00   1.637E+01  2.123E+00 
5.790E+00   1.648E+01  2.124E+00 
5.865E+00   1.659E+01  2.124E+00 
5.942E+00   1.669E+01  2.124E+00 
6.019E+00   1.680E+01  2.125E+00 
6.097E+00   1.691E+01  2.125E+00 
6.176E+00   1.702E+01  2.125E+00 
6.256E+00   1.713E+01  2.126E+00 
6.338E+00   1.724E+01  2.126E+00 
6.420E+00   1.735E+01  2.126E+00 
6.504E+00   1.747E+01  2.126E+00 
6.588E+00   1.758E+01  2.126E+00 
6.674E+00   1.769E+01  2.126E+00 
6.760E+00   1.781E+01  2.126E+00 
6.848E+00   1.792E+01  2.126E+00 
6.937E+00   1.804E+01  2.126E+00 
7.027E+00   1.815E+01  2.125E+00 
7.119E+00   1.827E+01  2.125E+00 
7.211E+00   1.839E+01  2.125E+00 
7.305E+00   1.851E+01  2.124E+00 
7.400E+00   1.863E+01  2.124E+00 
7.496E+00   1.875E+01  2.123E+00 
7.594E+00   1.887E+01  2.123E+00 
7.692E+00   1.899E+01  2.122E+00 
7.792E+00   1.912E+01  2.121E+00 
7.894E+00   1.924E+01  2.121E+00 
7.996E+00   1.937E+01  2.120E+00 
8.100E+00   1.949E+01  2.119E+00 
8.205E+00   1.961E+01  2.118E+00 
8.312E+00   1.974E+01  2.117E+00 
8.420E+00   1.987E+01  2.116E+00 
8.529E+00   1.999E+01  2.115E+00 
8.640E+00   2.012E+01  2.114E+00 
8.753E+00   2.025E+01  2.113E+00 
8.866E+00   2.039E+01  2.111E+00 
8.982E+00   2.052E+01  2.110E+00 
9.098E+00   2.065E+01  2.109E+00 
9.217E+00   2.078E+01  2.107E+00 
9.336E+00   2.092E+01  2.106E+00 
9.458E+00   2.106E+01  2.104E+00 
9.581E+00   2.119E+01  2.103E+00 
9.705E+00   2.133E+01  2.101E+00 
9.831E+00   2.147E+01  2.099E+00 
9.959E+00   2.161E+01  2.098E+00 
1.009E+01   2.176E+01  2.096E+00 
1.022E+01   2.190E+01  2.094E+00 
1.035E+01   2.205E+01  2.092E+00 
1.049E+01   2.219E+01  2.090E+00 
1.062E+01   2.234E+01  2.088E+00 
1.076E+01   2.249E+01  2.086E+00 
1.090E+01   2.264E+01  2.084E+00 
1.104E+01   2.279E+01  2.081E+00 
1.119E+01   2.294E+01  2.079E+00 
1.133E+01   2.309E+01  2.077E+00 
1.148E+01   2.325E+01  2.075E+00 
1.163E+01   2.340E+01  2.072E+00 
1.178E+01   2.356E+01  2.070E+00 
1.193E+01   2.372E+01  2.067E+00 
1.209E+01   2.388E+01  2.064E+00 
1.224E+01   2.404E+01  2.062E+00 
1.240E+01   2.420E+01  2.059E+00 
1.256E+01   2.437E+01  2.056E+00 
1.273E+01   2.453E+01  2.053E+00 
1.289E+01   2.470E+01  2.051E+00 
1.306E+01   2.486E+01  2.048E+00 
1.323E+01   2.503E+01  2.045E+00 
1.340E+01   2.520E+01  2.041E+00 
1.358E+01   2.538E+01  2.038E+00 
1.375E+01   2.555E+01  2.035E+00 
1.393E+01   2.572E+01  2.032E+00 
1.411E+01   2.590E+01  2.029E+00 
1.430E+01   2.608E+01  2.025E+00 
1.448E+01   2.626E+01  2.022E+00 
1.467E+01   2.644E+01  2.018E+00 
1.486E+01   2.662E+01  2.015E+00 
1.505E+01   2.681E+01  2.011E+00 
1.525E+01   2.699E+01  2.008E+00 
1.545E+01   2.718E+01  2.004E+00 
1.565E+01   2.737E+01  2.000E+00 
1.585E+01   2.756E+01  1.997E+00 
1.606E+01   2.775E+01  1.993E+00 
1.627E+01   2.794E+01  1.989E+00 
1.648E+01   2.814E+01  1.985E+00 
1.669E+01   2.833E+01  1.981E+00 
1.691E+01   2.853E+01  1.977E+00 
1.713E+01   2.873E+01  1.973E+00 
1.735E+01   2.893E+01  1.969E+00 
1.758E+01   2.913E+01  1.964E+00 
1.781E+01   2.934E+01  1.960E+00 
1.804E+01   2.954E+01  1.956E+00 
1.827E+01   2.975E+01  1.951E+00 
1.851E+01   2.996E+01  1.947E+00 
1.875E+01   3.017E+01  1.943E+00 
1.899E+01   3.039E+01  1.938E+00 
1.924E+01   3.060E+01  1.934E+00 
1.949E+01   3.082E+01  1.929E+00 
1.974E+01   3.104E+01  1.924E+00 
2.000E+01   3.126E+01  1.920E+00 
2.026E+01   3.148E+01  1.915E+00 
2.052E+01   3.170E+01  1.910E+00 
2.079E+01   3.193E+01  1.905E+00 
2.106E+01   3.216E+01  1.900E+00 
2.133E+01   3.239E+01  1.895E+00 
2.161E+01   3.262E+01  1.890E+00 
2.189E+01   3.285E+01  1.885E+00 
2.218E+01   3.309E+01  1.880E+00 
2.247E+01   3.332E+01  1.875E+00 
2.276E+01   3.356E+01  1.870E+00 
2.305E+01   3.381E+01  1.864E+00 
2.335E+01   3.405E+01  1.859E+00 
2.366E+01   3.429E+01  1.854E+00 
2.396E+01   3.454E+01  1.848E+00 
2.428E+01   3.479E+01  1.843E+00 
2.459E+01   3.504E+01  1.838E+00 
2.491E+01   3.529E+01  1.832E+00 
2.523E+01   3.555E+01  1.826E+00 
2.556E+01   3.581E+01  1.821E+00 
2.589E+01   3.607E+01  1.815E+00 
2.623E+01   3.633E+01  1.810E+00 
2.657E+01   3.659E+01  1.804E+00 
2.692E+01   3.686E+01  1.798E+00 
2.727E+01   3.713E+01  1.792E+00 
2.762E+01   3.740E+01  1.786E+00 
2.798E+01   3.767E+01  1.781E+00 
2.834E+01   3.794E+01  1.775E+00 
2.871E+01   3.822E+01  1.769E+00 
2.909E+01   3.850E+01  1.763E+00 
2.946E+01   3.878E+01  1.757E+00 
2.985E+01   3.907E+01  1.751E+00 
3.023E+01   3.935E+01  1.745E+00 
3.063E+01   3.964E+01  1.738E+00 
3.103E+01   3.993E+01  1.732E+00 
3.143E+01   4.022E+01  1.726E+00 
3.184E+01   4.052E+01  1.720E+00 
3.225E+01   4.082E+01  1.714E+00 
3.267E+01   4.112E+01  1.707E+00 
3.309E+01   4.142E+01  1.701E+00 
3.352E+01   4.172E+01  1.695E+00 
3.396E+01   4.203E+01  1.688E+00 
3.440E+01   4.234E+01  1.682E+00 
3.485E+01   4.265E+01  1.675E+00 
3.530E+01   4.297E+01  1.669E+00 
3.576E+01   4.329E+01  1.662E+00 
3.623E+01   4.361E+01  1.656E+00 
3.670E+01   4.393E+01  1.649E+00 
3.717E+01   4.425E+01  1.643E+00 
3.766E+01   4.458E+01  1.636E+00 
3.815E+01   4.491E+01  1.629E+00 
3.864E+01   4.524E+01  1.623E+00 
3.914E+01   4.558E+01  1.616E+00 
3.965E+01   4.592E+01  1.609E+00 
4.017E+01   4.626E+01  1.602E+00 
4.069E+01   4.660E+01  1.596E+00 
4.122E+01   4.695E+01  1.589E+00 
4.175E+01   4.729E+01  1.582E+00 
4.230E+01   4.765E+01  1.575E+00 
4.285E+01   4.800E+01  1.568E+00 
4.340E+01   4.836E+01  1.562E+00 
4.397E+01   4.872E+01  1.555E+00 
4.454E+01   4.908E+01  1.548E+00 
4.512E+01   4.944E+01  1.541E+00 
4.570E+01   4.981E+01  1.534E+00 
4.630E+01   5.018E+01  1.527E+00 
4.690E+01   5.055E+01  1.520E+00 
4.751E+01   5.093E+01  1.513E+00 
4.813E+01   5.131E+01  1.506E+00 
4.875E+01   5.169E+01  1.499E+00 
4.939E+01   5.207E+01  1.492E+00 
5.003E+01   5.246E+01  1.485E+00 
5.068E+01   5.285E+01  1.478E+00 
5.134E+01   5.325E+01  1.471E+00 
5.200E+01   5.364E+01  1.464E+00 
5.268E+01   5.404E+01  1.457E+00 
5.336E+01   5.444E+01  1.449E+00 
5.406E+01   5.485E+01  1.442E+00 
5.476E+01   5.525E+01  1.435E+00 
5.547E+01   5.566E+01  1.428E+00 
5.619E+01   5.608E+01  1.421E+00 
5.692E+01   5.650E+01  1.414E+00 
5.766E+01   5.691E+01  1.407E+00 
5.841E+01   5.734E+01  1.399E+00 
5.917E+01   5.776E+01  1.392E+00 
5.994E+01   5.819E+01  1.385E+00 
6.072E+01   5.862E+01  1.378E+00 
6.151E+01   5.906E+01  1.371E+00 
6.231E+01   5.949E+01  1.364E+00 
6.312E+01   5.993E+01  1.356E+00 
6.394E+01   6.038E+01  1.349E+00 
6.477E+01   6.082E+01  1.342E+00 
6.561E+01   6.127E+01  1.335E+00 
6.646E+01   6.172E+01  1.328E+00 
6.733E+01   6.218E+01  1.320E+00 
6.820E+01   6.264E+01  1.313E+00 
6.909E+01   6.310E+01  1.306E+00 
6.999E+01   6.356E+01  1.299E+00 
7.090E+01   6.403E+01  1.292E+00 
7.182E+01   6.450E+01  1.284E+00 
7.275E+01   6.497E+01  1.277E+00 
7.370E+01   6.545E+01  1.270E+00 
7.465E+01   6.593E+01  1.263E+00 
7.562E+01   6.641E+01  1.256E+00 
7.661E+01   6.689E+01  1.248E+00 
7.760E+01   6.738E+01  1.241E+00 
7.861E+01   6.787E+01  1.234E+00 
7.963E+01   6.837E+01  1.227E+00 
8.067E+01   6.886E+01  1.220E+00 
8.172E+01   6.936E+01  1.213E+00 
8.278E+01   6.986E+01  1.206E+00 
8.385E+01   7.037E+01  1.198E+00 
8.494E+01   7.088E+01  1.191E+00 
8.605E+01   7.139E+01  1.184E+00 
8.717E+01   7.190E+01  1.177E+00 
8.830E+01   7.242E+01  1.170E+00 
8.945E+01   7.293E+01  1.163E+00 
9.061E+01   7.346E+01  1.156E+00 
9.179E+01   7.398E+01  1.149E+00 
9.298E+01   7.451E+01  1.142E+00 
9.419E+01   7.504E+01  1.135E+00 
9.541E+01   7.557E+01  1.128E+00 
9.665E+01   7.610E+01  1.121E+00 
9.791E+01   7.664E+01  1.114E+00 
9.918E+01   7.718E+01  1.107E+00 
1.005E+02   7.772E+01  1.100E+00 
1.018E+02   7.826E+01  1.093E+00 
1.031E+02   7.881E+01  1.086E+00 
1.044E+02   7.936E+01  1.079E+00 
1.058E+02   7.991E+01  1.072E+00 
1.072E+02   8.046E+01  1.065E+00 
1.086E+02   8.102E+01  1.059E+00 
1.100E+02   8.158E+01  1.052E+00 
1.114E+02   8.214E+01  1.045E+00 
1.129E+02   8.270E+01  1.038E+00 
1.143E+02   8.326E+01  1.031E+00 
1.158E+02   8.383E+01  1.024E+00 
1.173E+02   8.440E+01  1.018E+00 
1.188E+02   8.497E+01  1.011E+00 
1.204E+02   8.554E+01  1.004E+00 
1.219E+02   8.611E+01  9.975E-01 
1.235E+02   8.669E+01  9.909E-01 
1.251E+02   8.726E+01  9.842E-01 
1.268E+02   8.784E+01  9.776E-01 
1.284E+02   8.842E+01  9.710E-01 
1.301E+02   8.900E+01  9.644E-01 
1.318E+02   8.959E+01  9.578E-01 
1.335E+02   9.017E+01  9.512E-01 
1.352E+02   9.075E+01  9.447E-01 
1.370E+02   9.134E+01  9.382E-01 
1.388E+02   9.193E+01  9.317E-01 
1.406E+02   9.251E+01  9.253E-01 
1.424E+02   9.310E+01  9.188E-01 
1.442E+02   9.369E+01  9.124E-01 
1.461E+02   9.428E+01  9.060E-01 
1.480E+02   9.488E+01  8.996E-01 
1.499E+02   9.547E+01  8.933E-01 
1.519E+02   9.606E+01  8.870E-01 
1.539E+02   9.665E+01  8.807E-01 
1.559E+02   9.725E+01  8.744E-01 
1.579E+02   9.784E+01  8.682E-01 
1.599E+02   9.843E+01  8.619E-01 
1.620E+02   9.903E+01  8.557E-01 
1.641E+02   9.962E+01  8.496E-01 
1.662E+02   1.002E+02  8.434E-01 
1.684E+02   1.008E+02  8.373E-01 
1.706E+02   1.014E+02  8.312E-01 
1.728E+02   1.020E+02  8.252E-01 
1.751E+02   1.026E+02  8.191E-01 
1.773E+02   1.032E+02  8.131E-01 
1.796E+02   1.038E+02  8.071E-01 
1.820E+02   1.044E+02  8.011E-01 
1.843E+02   1.050E+02  7.952E-01 
1.867E+02   1.055E+02  7.893E-01 
1.892E+02   1.061E+02  7.834E-01 
1.916E+02   1.067E+02  7.776E-01 
1.941E+02   1.073E+02  7.717E-01 
1.966E+02   1.079E+02  7.659E-01 
1.992E+02   1.085E+02  7.602E-01 
2.018E+02   1.091E+02  7.544E-01 
2.044E+02   1.096E+02  7.487E-01 
2.071E+02   1.102E+02  7.430E-01 
2.097E+02   1.108E+02  7.374E-01 
2.125E+02   1.114E+02  7.317E-01 
2.152E+02   1.119E+02  7.261E-01 
2.180E+02   1.125E+02  7.206E-01 
2.209E+02   1.131E+02  7.150E-01 
2.237E+02   1.136E+02  7.095E-01 
2.266E+02   1.142E+02  7.040E-01 
2.296E+02   1.148E+02  6.986E-01 
2.326E+02   1.153E+02  6.931E-01 
2.356E+02   1.159E+02  6.877E-01 
2.387E+02   1.164E+02  6.823E-01 
2.418E+02   1.170E+02  6.770E-01 
2.449E+02   1.175E+02  6.717E-01 
2.481E+02   1.181E+02  6.664E-01 
2.513E+02   1.186E+02  6.611E-01 
2.546E+02   1.192E+02  6.559E-01 
2.579E+02   1.197E+02  6.507E-01 
2.612E+02   1.202E+02  6.455E-01 
2.646E+02   1.208E+02  6.404E-01 
2.681E+02   1.213E+02  6.353E-01 
2.716E+02   1.218E+02  6.302E-01 
2.751E+02   1.223E+02  6.251E-01 
2.787E+02   1.228E+02  6.201E-01 
2.823E+02   1.234E+02  6.151E-01 
2.859E+02   1.239E+02  6.102E-01 
2.897E+02   1.244E+02  6.052E-01 
2.934E+02   1.249E+02  6.003E-01 
2.972E+02   1.254E+02  5.954E-01 
3.011E+02   1.258E+02  5.906E-01 
3.050E+02   1.263E+02  5.858E-01 
3.090E+02   1.268E+02  5.810E-01 
3.130E+02   1.273E+02  5.762E-01 
3.171E+02   1.278E+02  5.715E-01 
3.212E+02   1.282E+02  5.668E-01 
3.254E+02   1.287E+02  5.621E-01 
3.296E+02   1.291E+02  5.574E-01 
3.339E+02   1.296E+02  5.528E-01 
3.382E+02   1.300E+02  5.482E-01 
3.426E+02   1.305E+02  5.437E-01 
3.471E+02   1.309E+02  5.391E-01 
3.516E+02   1.313E+02  5.346E-01 
3.561E+02   1.318E+02  5.302E-01 
3.608E+02   1.322E+02  5.257E-01 
3.655E+02   1.326E+02  5.213E-01 
3.702E+02   1.330E+02  5.169E-01 
3.750E+02   1.334E+02  5.126E-01 
3.799E+02   1.338E+02  5.082E-01 
3.848E+02   1.342E+02  5.039E-01 
3.898E+02   1.346E+02  4.996E-01 
3.949E+02   1.349E+02  4.954E-01 
4.000E+02   1.353E+02  4.912E-01 
4.052E+02   1.357E+02  4.870E-01 
4.105E+02   1.360E+02  4.828E-01 
4.158E+02   1.364E+02  4.787E-01 
4.212E+02   1.367E+02  4.746E-01 
4.267E+02   1.371E+02  4.705E-01 
4.323E+02   1.374E+02  4.665E-01 
4.379E+02   1.377E+02  4.624E-01 
4.436E+02   1.380E+02  4.585E-01 
4.493E+02   1.384E+02  4.545E-01 
4.552E+02   1.387E+02  4.506E-01 
4.611E+02   1.390E+02  4.466E-01 
4.671E+02   1.392E+02  4.428E-01 
4.731E+02   1.395E+02  4.389E-01 
4.793E+02   1.398E+02  4.351E-01 
4.855E+02   1.401E+02  4.313E-01 
4.918E+02   1.403E+02  4.275E-01 
4.982E+02   1.406E+02  4.237E-01 
5.047E+02   1.408E+02  4.200E-01 
5.113E+02   1.411E+02  4.163E-01 
5.179E+02   1.413E+02  4.127E-01 
5.246E+02   1.415E+02  4.090E-01 
5.315E+02   1.417E+02  4.054E-01 
5.384E+02   1.419E+02  4.018E-01 
5.454E+02   1.421E+02  3.983E-01 
5.524E+02   1.423E+02  3.947E-01 
5.596E+02   1.425E+02  3.912E-01 
5.669E+02   1.427E+02  3.877E-01 
5.743E+02   1.428E+02  3.843E-01 
5.817E+02   1.430E+02  3.808E-01 
5.893E+02   1.431E+02  3.774E-01 
5.969E+02   1.433E+02  3.740E-01 
6.047E+02   1.434E+02  3.707E-01 
6.126E+02   1.435E+02  3.674E-01 
6.205E+02   1.436E+02  3.774E-01 
6.286E+02   1.437E+02  3.740E-01 
6.368E+02   1.438E+02  3.706E-01 
6.450E+02   1.439E+02  3.672E-01 
6.534E+02   1.440E+02  3.638E-01 
6.619E+02   1.441E+02  3.605E-01 
6.705E+02   1.441E+02  3.572E-01 
6.792E+02   1.442E+02  3.539E-01 
6.881E+02   1.442E+02  3.507E-01 
6.970E+02   1.443E+02  3.474E-01 
7.061E+02   1.443E+02  3.442E-01 
7.152E+02   1.443E+02  3.411E-01 
7.245E+02   1.443E+02  3.379E-01 
7.339E+02   1.443E+02  3.348E-01 
7.435E+02   1.443E+02  3.317E-01 
7.531E+02   1.443E+02  3.286E-01 
7.629E+02   1.443E+02  3.256E-01 
7.728E+02   1.443E+02  3.225E-01 
7.829E+02   1.442E+02  3.195E-01 
7.931E+02   1.442E+02  3.165E-01 
8.034E+02   1.441E+02  3.136E-01 
8.138E+02   1.440E+02  3.106E-01 
8.244E+02   1.440E+02  3.077E-01 
8.351E+02   1.439E+02  3.048E-01 
8.460E+02   1.438E+02  3.020E-01 
8.570E+02   1.437E+02  2.991E-01 
8.681E+02   1.436E+02  2.963E-01 
8.794E+02   1.435E+02  2.935E-01 
8.908E+02   1.433E+02  2.908E-01 
9.024E+02   1.432E+02  2.880E-01 
9.141E+02   1.430E+02  2.853E-01 
9.260E+02   1.429E+02  2.826E-01 
9.380E+02   1.427E+02  2.799E-01 
9.502E+02   1.426E+02  2.772E-01 
9.626E+02   1.424E+02  2.746E-01 
9.751E+02   1.422E+02  2.720E-01 
9.877E+02   1.420E+02  2.694E-01 
1.001E+03   1.418E+02  2.668E-01 
1.014E+03   1.416E+02  2.643E-01 
1.027E+03   1.414E+02  2.618E-01 
1.040E+03   1.411E+02  2.593E-01 
1.054E+03   1.409E+02  2.568E-01 
1.067E+03   1.407E+02  2.543E-01 
1.081E+03   1.404E+02  2.519E-01 
1.095E+03   1.401E+02  2.494E-01 
1.109E+03   1.399E+02  2.470E-01 
1.124E+03   1.396E+02  2.447E-01 
1.138E+03   1.393E+02  2.423E-01 
1.153E+03   1.390E+02  2.400E-01 
1.168E+03   1.387E+02  2.376E-01 
1.183E+03   1.384E+02  2.353E-01 
1.199E+03   1.381E+02  2.331E-01 
1.214E+03   1.378E+02  2.308E-01 
1.230E+03   1.375E+02  2.286E-01 
1.246E+03   1.371E+02  2.263E-01 
1.262E+03   1.368E+02  2.241E-01 
1.279E+03   1.365E+02  2.220E-01 
1.295E+03   1.361E+02  2.198E-01 
1.312E+03   1.358E+02  2.176E-01 
1.329E+03   1.354E+02  2.155E-01 
1.347E+03   1.350E+02  2.134E-01 
1.364E+03   1.346E+02  2.113E-01 
1.382E+03   1.343E+02  2.093E-01 
1.400E+03   1.339E+02  2.072E-01 
1.418E+03   1.335E+02  2.052E-01 
1.436E+03   1.331E+02  2.032E-01 
1.455E+03   1.327E+02  2.012E-01 
1.474E+03   1.322E+02  1.992E-01 
1.493E+03   1.318E+02  1.972E-01 
1.513E+03   1.314E+02  1.953E-01 
1.532E+03   1.310E+02  1.933E-01 
1.552E+03   1.305E+02  1.914E-01 
1.572E+03   1.301E+02  1.895E-01 
1.593E+03   1.296E+02  1.877E-01 
1.613E+03   1.292E+02  1.858E-01 
1.634E+03   1.287E+02  1.840E-01 
1.656E+03   1.283E+02  1.821E-01 
1.677E+03   1.278E+02  1.803E-01 
1.699E+03   1.273E+02  1.785E-01 
1.721E+03   1.269E+02  1.768E-01 
1.743E+03   1.264E+02  1.750E-01 
1.766E+03   1.259E+02  1.733E-01 
1.789E+03   1.254E+02  1.715E-01 
1.812E+03   1.249E+02  1.698E-01 
1.836E+03   1.244E+02  1.681E-01 
1.860E+03   1.239E+02  1.664E-01 
