Ion = Hydrogen    . Mass = 1.0079
Tgt = Dy (Solid). Density = 8.551 g/cm3
Stopping Units =  eV/(1E15 atoms/cm2)
Energy(keV)  S(Elec)    S(Nuc)
1.000E+00   5.968E+00  2.824E-01 
1.012E+00   6.003E+00  2.827E-01 
1.023E+00   6.037E+00  2.831E-01 
1.035E+00   6.072E+00  2.834E-01 
1.047E+00   6.108E+00  2.838E-01 
1.059E+00   6.143E+00  2.841E-01 
1.072E+00   6.178E+00  2.844E-01 
1.084E+00   6.214E+00  2.848E-01 
1.097E+00   6.250E+00  2.851E-01 
1.109E+00   6.286E+00  2.854E-01 
1.122E+00   6.323E+00  2.857E-01 
1.135E+00   6.359E+00  2.860E-01 
1.148E+00   6.396E+00  2.863E-01 
1.162E+00   6.433E+00  2.866E-01 
1.175E+00   6.470E+00  2.869E-01 
1.189E+00   6.507E+00  2.872E-01 
1.203E+00   6.545E+00  2.875E-01 
1.217E+00   6.583E+00  2.878E-01 
1.231E+00   6.621E+00  2.881E-01 
1.245E+00   6.659E+00  2.884E-01 
1.259E+00   6.698E+00  2.887E-01 
1.274E+00   6.737E+00  2.889E-01 
1.289E+00   6.775E+00  2.892E-01 
1.304E+00   6.815E+00  2.894E-01 
1.319E+00   6.854E+00  2.897E-01 
1.334E+00   6.894E+00  2.900E-01 
1.350E+00   6.934E+00  2.902E-01 
1.365E+00   6.974E+00  2.904E-01 
1.381E+00   7.014E+00  2.907E-01 
1.397E+00   7.055E+00  2.909E-01 
1.413E+00   7.095E+00  2.911E-01 
1.430E+00   7.136E+00  2.914E-01 
1.446E+00   7.178E+00  2.916E-01 
1.463E+00   7.219E+00  2.918E-01 
1.480E+00   7.261E+00  2.920E-01 
1.497E+00   7.303E+00  2.922E-01 
1.515E+00   7.345E+00  2.924E-01 
1.532E+00   7.388E+00  2.926E-01 
1.550E+00   7.430E+00  2.928E-01 
1.568E+00   7.473E+00  2.930E-01 
1.586E+00   7.516E+00  2.932E-01 
1.605E+00   7.560E+00  2.933E-01 
1.623E+00   7.604E+00  2.935E-01 
1.642E+00   7.648E+00  2.937E-01 
1.661E+00   7.692E+00  2.938E-01 
1.680E+00   7.736E+00  2.940E-01 
1.700E+00   7.781E+00  2.941E-01 
1.719E+00   7.826E+00  2.943E-01 
1.739E+00   7.871E+00  2.944E-01 
1.760E+00   7.917E+00  2.946E-01 
1.780E+00   7.963E+00  2.947E-01 
1.801E+00   8.009E+00  2.948E-01 
1.822E+00   8.055E+00  2.949E-01 
1.843E+00   8.102E+00  2.950E-01 
1.864E+00   8.148E+00  2.952E-01 
1.886E+00   8.196E+00  2.953E-01 
1.908E+00   8.243E+00  2.954E-01 
1.930E+00   8.291E+00  2.954E-01 
1.952E+00   8.339E+00  2.955E-01 
1.975E+00   8.387E+00  2.956E-01 
1.998E+00   8.435E+00  2.957E-01 
2.021E+00   8.482E+00  2.958E-01 
2.044E+00   8.524E+00  2.958E-01 
2.068E+00   8.566E+00  2.959E-01 
2.092E+00   8.608E+00  2.959E-01 
2.116E+00   8.650E+00  2.960E-01 
2.141E+00   8.693E+00  2.960E-01 
2.166E+00   8.735E+00  2.961E-01 
2.191E+00   8.778E+00  2.961E-01 
2.216E+00   8.822E+00  2.961E-01 
2.242E+00   8.865E+00  2.962E-01 
2.268E+00   8.909E+00  2.962E-01 
2.294E+00   8.953E+00  2.962E-01 
2.321E+00   8.997E+00  2.962E-01 
2.348E+00   9.041E+00  2.962E-01 
2.375E+00   9.086E+00  2.962E-01 
2.402E+00   9.131E+00  2.962E-01 
2.430E+00   9.176E+00  2.962E-01 
2.458E+00   9.222E+00  2.961E-01 
2.487E+00   9.267E+00  2.961E-01 
2.516E+00   9.313E+00  2.961E-01 
2.545E+00   9.360E+00  2.960E-01 
2.574E+00   9.406E+00  2.960E-01 
2.604E+00   9.453E+00  2.959E-01 
2.635E+00   9.500E+00  2.959E-01 
2.665E+00   9.547E+00  2.958E-01 
2.696E+00   9.594E+00  2.957E-01 
2.727E+00   9.642E+00  2.957E-01 
2.759E+00   9.690E+00  2.956E-01 
2.791E+00   9.739E+00  2.955E-01 
2.823E+00   9.787E+00  2.954E-01 
2.856E+00   9.836E+00  2.953E-01 
2.889E+00   9.885E+00  2.952E-01 
2.923E+00   9.934E+00  2.951E-01 
2.957E+00   9.984E+00  2.950E-01 
2.991E+00   1.003E+01  2.949E-01 
3.026E+00   1.008E+01  2.947E-01 
3.061E+00   1.013E+01  2.946E-01 
3.096E+00   1.019E+01  2.944E-01 
3.132E+00   1.024E+01  2.943E-01 
3.168E+00   1.029E+01  2.941E-01 
3.205E+00   1.034E+01  2.940E-01 
3.242E+00   1.039E+01  2.938E-01 
3.280E+00   1.044E+01  2.936E-01 
3.318E+00   1.050E+01  2.935E-01 
3.356E+00   1.055E+01  2.933E-01 
3.395E+00   1.060E+01  2.931E-01 
3.435E+00   1.065E+01  2.929E-01 
3.475E+00   1.071E+01  2.927E-01 
3.515E+00   1.076E+01  2.925E-01 
3.556E+00   1.082E+01  2.923E-01 
3.597E+00   1.087E+01  2.921E-01 
3.639E+00   1.093E+01  2.918E-01 
3.681E+00   1.098E+01  2.916E-01 
3.724E+00   1.104E+01  2.914E-01 
3.767E+00   1.109E+01  2.911E-01 
3.810E+00   1.115E+01  2.909E-01 
3.855E+00   1.120E+01  2.906E-01 
3.899E+00   1.126E+01  2.903E-01 
3.945E+00   1.132E+01  2.901E-01 
3.990E+00   1.138E+01  2.898E-01 
4.037E+00   1.143E+01  2.895E-01 
4.083E+00   1.149E+01  2.892E-01 
4.131E+00   1.155E+01  2.889E-01 
4.179E+00   1.161E+01  2.886E-01 
4.227E+00   1.167E+01  2.883E-01 
4.276E+00   1.173E+01  2.880E-01 
4.326E+00   1.178E+01  2.877E-01 
4.376E+00   1.184E+01  2.874E-01 
4.427E+00   1.190E+01  2.870E-01 
4.478E+00   1.196E+01  2.867E-01 
4.530E+00   1.203E+01  2.863E-01 
4.583E+00   1.209E+01  2.860E-01 
4.636E+00   1.215E+01  2.856E-01 
4.690E+00   1.221E+01  2.853E-01 
4.744E+00   1.227E+01  2.849E-01 
4.799E+00   1.233E+01  2.845E-01 
4.855E+00   1.240E+01  2.841E-01 
4.911E+00   1.246E+01  2.838E-01 
4.968E+00   1.252E+01  2.834E-01 
5.026E+00   1.259E+01  2.830E-01 
5.084E+00   1.265E+01  2.826E-01 
5.143E+00   1.272E+01  2.821E-01 
5.202E+00   1.278E+01  2.817E-01 
5.263E+00   1.285E+01  2.813E-01 
5.324E+00   1.291E+01  2.809E-01 
5.386E+00   1.298E+01  2.804E-01 
5.448E+00   1.304E+01  2.800E-01 
5.511E+00   1.311E+01  2.795E-01 
5.575E+00   1.318E+01  2.791E-01 
5.640E+00   1.324E+01  2.786E-01 
5.705E+00   1.331E+01  2.782E-01 
5.771E+00   1.338E+01  2.777E-01 
5.838E+00   1.345E+01  2.772E-01 
5.906E+00   1.352E+01  2.767E-01 
5.975E+00   1.359E+01  2.762E-01 
6.044E+00   1.366E+01  2.757E-01 
6.114E+00   1.373E+01  2.752E-01 
6.185E+00   1.380E+01  2.747E-01 
6.257E+00   1.387E+01  2.742E-01 
6.329E+00   1.394E+01  2.737E-01 
6.403E+00   1.401E+01  2.732E-01 
6.477E+00   1.408E+01  2.727E-01 
6.552E+00   1.415E+01  2.721E-01 
6.628E+00   1.423E+01  2.716E-01 
6.705E+00   1.430E+01  2.710E-01 
6.783E+00   1.437E+01  2.705E-01 
6.861E+00   1.445E+01  2.699E-01 
6.941E+00   1.452E+01  2.694E-01 
7.021E+00   1.459E+01  2.688E-01 
7.103E+00   1.467E+01  2.682E-01 
7.185E+00   1.474E+01  2.676E-01 
7.269E+00   1.482E+01  2.670E-01 
7.353E+00   1.490E+01  2.665E-01 
7.438E+00   1.497E+01  2.659E-01 
7.524E+00   1.505E+01  2.653E-01 
7.612E+00   1.513E+01  2.647E-01 
7.700E+00   1.520E+01  2.640E-01 
7.789E+00   1.528E+01  2.634E-01 
7.880E+00   1.536E+01  2.628E-01 
7.971E+00   1.544E+01  2.622E-01 
8.064E+00   1.552E+01  2.615E-01 
8.157E+00   1.560E+01  2.609E-01 
8.252E+00   1.568E+01  2.603E-01 
8.347E+00   1.576E+01  2.596E-01 
8.444E+00   1.584E+01  2.590E-01 
8.542E+00   1.592E+01  2.583E-01 
8.641E+00   1.600E+01  2.576E-01 
8.741E+00   1.608E+01  2.570E-01 
8.843E+00   1.617E+01  2.563E-01 
8.945E+00   1.625E+01  2.556E-01 
9.049E+00   1.633E+01  2.549E-01 
9.154E+00   1.642E+01  2.543E-01 
9.260E+00   1.650E+01  2.536E-01 
9.368E+00   1.659E+01  2.529E-01 
9.476E+00   1.667E+01  2.522E-01 
9.586E+00   1.676E+01  2.515E-01 
9.698E+00   1.684E+01  2.508E-01 
9.810E+00   1.693E+01  2.500E-01 
9.924E+00   1.701E+01  2.493E-01 
1.004E+01   1.710E+01  2.486E-01 
1.016E+01   1.719E+01  2.479E-01 
1.027E+01   1.728E+01  2.471E-01 
1.039E+01   1.737E+01  2.464E-01 
1.051E+01   1.746E+01  2.457E-01 
1.063E+01   1.754E+01  2.449E-01 
1.076E+01   1.763E+01  2.442E-01 
1.088E+01   1.772E+01  2.434E-01 
1.101E+01   1.782E+01  2.427E-01 
1.114E+01   1.791E+01  2.419E-01 
1.127E+01   1.800E+01  2.412E-01 
1.140E+01   1.809E+01  2.404E-01 
1.153E+01   1.818E+01  2.396E-01 
1.166E+01   1.828E+01  2.388E-01 
1.180E+01   1.837E+01  2.381E-01 
1.193E+01   1.846E+01  2.373E-01 
1.207E+01   1.856E+01  2.365E-01 
1.221E+01   1.865E+01  2.357E-01 
1.235E+01   1.875E+01  2.349E-01 
1.250E+01   1.884E+01  2.341E-01 
1.264E+01   1.894E+01  2.333E-01 
1.279E+01   1.903E+01  2.325E-01 
1.294E+01   1.913E+01  2.317E-01 
1.309E+01   1.923E+01  2.309E-01 
1.324E+01   1.933E+01  2.301E-01 
1.339E+01   1.943E+01  2.293E-01 
1.355E+01   1.952E+01  2.285E-01 
1.371E+01   1.962E+01  2.277E-01 
1.387E+01   1.972E+01  2.268E-01 
1.403E+01   1.982E+01  2.260E-01 
1.419E+01   1.992E+01  2.252E-01 
1.435E+01   2.002E+01  2.244E-01 
1.452E+01   2.013E+01  2.235E-01 
1.469E+01   2.023E+01  2.227E-01 
1.486E+01   2.033E+01  2.219E-01 
1.503E+01   2.043E+01  2.210E-01 
1.521E+01   2.054E+01  2.202E-01 
1.538E+01   2.064E+01  2.193E-01 
1.556E+01   2.074E+01  2.185E-01 
1.574E+01   2.085E+01  2.176E-01 
1.592E+01   2.095E+01  2.168E-01 
1.611E+01   2.106E+01  2.159E-01 
1.629E+01   2.117E+01  2.151E-01 
1.648E+01   2.127E+01  2.142E-01 
1.667E+01   2.138E+01  2.133E-01 
1.687E+01   2.149E+01  2.125E-01 
1.706E+01   2.159E+01  2.116E-01 
1.726E+01   2.170E+01  2.108E-01 
1.746E+01   2.181E+01  2.099E-01 
1.766E+01   2.192E+01  2.090E-01 
1.787E+01   2.203E+01  2.081E-01 
1.808E+01   2.214E+01  2.073E-01 
1.829E+01   2.225E+01  2.064E-01 
1.850E+01   2.236E+01  2.055E-01 
1.871E+01   2.247E+01  2.047E-01 
1.893E+01   2.258E+01  2.038E-01 
1.915E+01   2.270E+01  2.029E-01 
1.937E+01   2.281E+01  2.020E-01 
1.960E+01   2.292E+01  2.011E-01 
1.982E+01   2.304E+01  2.003E-01 
2.005E+01   2.315E+01  1.994E-01 
2.029E+01   2.326E+01  1.985E-01 
2.052E+01   2.338E+01  1.976E-01 
2.076E+01   2.349E+01  1.967E-01 
2.100E+01   2.361E+01  1.958E-01 
2.124E+01   2.373E+01  1.949E-01 
2.149E+01   2.384E+01  1.941E-01 
2.174E+01   2.396E+01  1.932E-01 
2.199E+01   2.408E+01  1.923E-01 
2.225E+01   2.419E+01  1.914E-01 
2.250E+01   2.431E+01  1.905E-01 
2.277E+01   2.443E+01  1.896E-01 
2.303E+01   2.455E+01  1.887E-01 
2.330E+01   2.467E+01  1.878E-01 
2.357E+01   2.479E+01  1.869E-01 
2.384E+01   2.491E+01  1.860E-01 
2.412E+01   2.503E+01  1.852E-01 
2.440E+01   2.515E+01  1.843E-01 
2.468E+01   2.527E+01  1.834E-01 
2.497E+01   2.539E+01  1.825E-01 
2.526E+01   2.551E+01  1.816E-01 
2.555E+01   2.563E+01  1.807E-01 
2.584E+01   2.576E+01  1.798E-01 
2.614E+01   2.588E+01  1.789E-01 
2.645E+01   2.600E+01  1.780E-01 
2.675E+01   2.613E+01  1.771E-01 
2.707E+01   2.625E+01  1.762E-01 
2.738E+01   2.637E+01  1.754E-01 
2.770E+01   2.650E+01  1.745E-01 
2.802E+01   2.662E+01  1.736E-01 
2.834E+01   2.675E+01  1.727E-01 
2.867E+01   2.687E+01  1.718E-01 
2.900E+01   2.700E+01  1.709E-01 
2.934E+01   2.713E+01  1.700E-01 
2.968E+01   2.725E+01  1.692E-01 
3.003E+01   2.738E+01  1.683E-01 
3.037E+01   2.751E+01  1.674E-01 
3.073E+01   2.763E+01  1.665E-01 
3.108E+01   2.776E+01  1.656E-01 
3.144E+01   2.789E+01  1.647E-01 
3.181E+01   2.801E+01  1.639E-01 
3.218E+01   2.814E+01  1.630E-01 
3.255E+01   2.827E+01  1.621E-01 
3.293E+01   2.840E+01  1.612E-01 
3.331E+01   2.853E+01  1.604E-01 
3.370E+01   2.866E+01  1.595E-01 
3.409E+01   2.878E+01  1.586E-01 
3.448E+01   2.891E+01  1.577E-01 
3.488E+01   2.904E+01  1.569E-01 
3.529E+01   2.917E+01  1.560E-01 
3.570E+01   2.930E+01  1.551E-01 
3.611E+01   2.943E+01  1.543E-01 
3.653E+01   2.956E+01  1.534E-01 
3.695E+01   2.969E+01  1.526E-01 
3.738E+01   2.982E+01  1.517E-01 
3.781E+01   2.995E+01  1.508E-01 
3.825E+01   3.008E+01  1.500E-01 
3.870E+01   3.021E+01  1.491E-01 
3.915E+01   3.034E+01  1.483E-01 
3.960E+01   3.047E+01  1.474E-01 
4.006E+01   3.060E+01  1.466E-01 
4.052E+01   3.073E+01  1.457E-01 
4.099E+01   3.086E+01  1.449E-01 
4.147E+01   3.099E+01  1.440E-01 
4.195E+01   3.112E+01  1.432E-01 
4.244E+01   3.125E+01  1.424E-01 
4.293E+01   3.138E+01  1.415E-01 
4.343E+01   3.150E+01  1.407E-01 
4.393E+01   3.163E+01  1.399E-01 
4.444E+01   3.176E+01  1.390E-01 
4.496E+01   3.189E+01  1.382E-01 
4.548E+01   3.202E+01  1.374E-01 
4.600E+01   3.215E+01  1.365E-01 
4.654E+01   3.228E+01  1.357E-01 
4.708E+01   3.241E+01  1.349E-01 
4.762E+01   3.253E+01  1.341E-01 
4.818E+01   3.266E+01  1.333E-01 
4.873E+01   3.279E+01  1.325E-01 
4.930E+01   3.291E+01  1.316E-01 
4.987E+01   3.304E+01  1.308E-01 
5.045E+01   3.317E+01  1.300E-01 
5.104E+01   3.329E+01  1.292E-01 
5.163E+01   3.342E+01  1.284E-01 
5.223E+01   3.354E+01  1.276E-01 
5.283E+01   3.367E+01  1.268E-01 
5.344E+01   3.379E+01  1.260E-01 
5.406E+01   3.392E+01  1.253E-01 
5.469E+01   3.404E+01  1.245E-01 
5.533E+01   3.416E+01  1.237E-01 
5.597E+01   3.428E+01  1.229E-01 
5.662E+01   3.441E+01  1.221E-01 
5.727E+01   3.453E+01  1.213E-01 
5.794E+01   3.465E+01  1.206E-01 
5.861E+01   3.477E+01  1.198E-01 
5.929E+01   3.488E+01  1.190E-01 
5.998E+01   3.500E+01  1.183E-01 
6.067E+01   3.512E+01  1.175E-01 
6.138E+01   3.524E+01  1.167E-01 
6.209E+01   3.535E+01  1.160E-01 
6.281E+01   3.547E+01  1.152E-01 
6.354E+01   3.558E+01  1.145E-01 
6.427E+01   3.569E+01  1.137E-01 
6.502E+01   3.581E+01  1.130E-01 
6.577E+01   3.592E+01  1.122E-01 
6.654E+01   3.603E+01  1.115E-01 
6.731E+01   3.614E+01  1.108E-01 
6.809E+01   3.625E+01  1.100E-01 
6.888E+01   3.635E+01  1.093E-01 
6.968E+01   3.646E+01  1.086E-01 
7.049E+01   3.657E+01  1.079E-01 
7.130E+01   3.667E+01  1.071E-01 
7.213E+01   3.677E+01  1.064E-01 
7.297E+01   3.687E+01  1.057E-01 
7.381E+01   3.698E+01  1.050E-01 
7.467E+01   3.707E+01  1.043E-01 
7.554E+01   3.717E+01  1.036E-01 
7.641E+01   3.727E+01  1.029E-01 
7.730E+01   3.736E+01  1.022E-01 
7.820E+01   3.746E+01  1.015E-01 
7.910E+01   3.755E+01  1.008E-01 
8.002E+01   3.764E+01  1.001E-01 
8.095E+01   3.773E+01  9.940E-02 
8.189E+01   3.782E+01  9.871E-02 
8.284E+01   3.791E+01  9.803E-02 
8.380E+01   3.799E+01  9.735E-02 
8.477E+01   3.808E+01  9.668E-02 
8.575E+01   3.816E+01  9.601E-02 
8.675E+01   3.824E+01  9.534E-02 
8.775E+01   3.832E+01  9.467E-02 
8.877E+01   3.839E+01  9.401E-02 
8.980E+01   3.847E+01  9.335E-02 
9.084E+01   3.854E+01  9.270E-02 
9.190E+01   3.861E+01  9.204E-02 
9.296E+01   3.868E+01  9.140E-02 
9.404E+01   3.875E+01  9.075E-02 
9.513E+01   3.882E+01  9.011E-02 
9.624E+01   3.888E+01  8.947E-02 
9.735E+01   3.894E+01  8.883E-02 
9.848E+01   3.900E+01  8.820E-02 
9.962E+01   3.906E+01  8.757E-02 
1.008E+02   3.911E+01  8.694E-02 
1.019E+02   3.917E+01  8.632E-02 
1.031E+02   3.922E+01  8.570E-02 
1.043E+02   3.927E+01  8.508E-02 
1.055E+02   3.932E+01  8.446E-02 
1.068E+02   3.936E+01  8.385E-02 
1.080E+02   3.940E+01  8.325E-02 
1.093E+02   3.945E+01  8.264E-02 
1.105E+02   3.948E+01  8.204E-02 
1.118E+02   3.952E+01  8.144E-02 
1.131E+02   3.955E+01  8.085E-02 
1.144E+02   3.958E+01  8.026E-02 
1.157E+02   3.961E+01  7.967E-02 
1.171E+02   3.964E+01  7.908E-02 
1.184E+02   3.966E+01  7.850E-02 
1.198E+02   3.969E+01  7.792E-02 
1.212E+02   3.971E+01  7.735E-02 
1.226E+02   3.972E+01  7.678E-02 
1.240E+02   3.974E+01  7.621E-02 
1.255E+02   3.975E+01  7.564E-02 
1.269E+02   3.976E+01  7.508E-02 
1.284E+02   3.977E+01  7.452E-02 
1.299E+02   3.977E+01  7.396E-02 
1.314E+02   3.977E+01  7.341E-02 
1.329E+02   3.977E+01  7.286E-02 
1.345E+02   3.977E+01  7.231E-02 
1.360E+02   3.976E+01  7.177E-02 
1.376E+02   3.975E+01  7.123E-02 
1.392E+02   3.974E+01  7.069E-02 
1.408E+02   3.973E+01  7.016E-02 
1.424E+02   3.971E+01  6.963E-02 
1.441E+02   3.969E+01  6.910E-02 
1.458E+02   3.967E+01  6.857E-02 
1.475E+02   3.965E+01  6.805E-02 
1.492E+02   3.962E+01  6.753E-02 
1.509E+02   3.959E+01  6.702E-02 
1.526E+02   3.956E+01  6.651E-02 
1.544E+02   3.953E+01  6.600E-02 
1.562E+02   3.949E+01  6.549E-02 
1.580E+02   3.945E+01  6.499E-02 
1.598E+02   3.941E+01  6.449E-02 
1.617E+02   3.936E+01  6.399E-02 
1.636E+02   3.932E+01  6.350E-02 
1.655E+02   3.927E+01  6.301E-02 
1.674E+02   3.921E+01  6.252E-02 
1.693E+02   3.916E+01  6.204E-02 
1.713E+02   3.910E+01  6.155E-02 
1.733E+02   3.904E+01  6.108E-02 
1.753E+02   3.898E+01  6.060E-02 
1.773E+02   3.891E+01  6.013E-02 
1.794E+02   3.885E+01  5.966E-02 
1.815E+02   3.878E+01  5.919E-02 
1.836E+02   3.870E+01  5.873E-02 
1.857E+02   3.863E+01  5.827E-02 
1.879E+02   3.855E+01  5.781E-02 
1.900E+02   3.847E+01  5.735E-02 
1.922E+02   3.839E+01  5.690E-02 
1.945E+02   3.831E+01  5.645E-02 
1.967E+02   3.822E+01  5.601E-02 
1.990E+02   3.813E+01  5.556E-02 
2.013E+02   3.804E+01  5.512E-02 
2.036E+02   3.795E+01  5.469E-02 
2.060E+02   3.786E+01  5.425E-02 
2.084E+02   3.776E+01  5.382E-02 
2.108E+02   3.766E+01  5.339E-02 
2.133E+02   3.756E+01  5.297E-02 
2.157E+02   3.746E+01  5.254E-02 
2.182E+02   3.735E+01  5.212E-02 
2.208E+02   3.725E+01  5.171E-02 
2.233E+02   3.714E+01  5.363E-02 
2.259E+02   3.703E+01  5.319E-02 
2.285E+02   3.692E+01  5.276E-02 
2.312E+02   3.680E+01  5.233E-02 
2.339E+02   3.669E+01  5.190E-02 
2.366E+02   3.657E+01  5.148E-02 
2.393E+02   3.645E+01  5.106E-02 
2.421E+02   3.633E+01  5.064E-02 
2.449E+02   3.621E+01  5.022E-02 
2.478E+02   3.609E+01  4.981E-02 
2.506E+02   3.596E+01  4.940E-02 
2.535E+02   3.584E+01  4.900E-02 
2.565E+02   3.571E+01  4.859E-02 
2.595E+02   3.558E+01  4.819E-02 
2.625E+02   3.545E+01  4.779E-02 
2.655E+02   3.532E+01  4.740E-02 
2.686E+02   3.519E+01  4.701E-02 
2.717E+02   3.506E+01  4.662E-02 
2.749E+02   3.492E+01  4.623E-02 
2.780E+02   3.479E+01  4.584E-02 
2.813E+02   3.465E+01  4.546E-02 
2.845E+02   3.452E+01  4.508E-02 
2.878E+02   3.438E+01  4.471E-02 
2.912E+02   3.424E+01  4.433E-02 
2.945E+02   3.410E+01  4.396E-02 
2.980E+02   3.396E+01  4.360E-02 
3.014E+02   3.382E+01  4.323E-02 
3.049E+02   3.368E+01  4.287E-02 
3.085E+02   3.354E+01  4.251E-02 
3.120E+02   3.340E+01  4.215E-02 
3.156E+02   3.325E+01  4.179E-02 
3.193E+02   3.311E+01  4.144E-02 
3.230E+02   3.297E+01  4.109E-02 
3.268E+02   3.282E+01  4.075E-02 
3.306E+02   3.268E+01  4.040E-02 
3.344E+02   3.253E+01  4.006E-02 
3.383E+02   3.239E+01  3.972E-02 
3.422E+02   3.225E+01  3.938E-02 
3.462E+02   3.210E+01  3.905E-02 
3.502E+02   3.195E+01  3.872E-02 
3.542E+02   3.181E+01  3.839E-02 
3.583E+02   3.166E+01  3.806E-02 
3.625E+02   3.152E+01  3.773E-02 
3.667E+02   3.137E+01  3.741E-02 
3.710E+02   3.123E+01  3.709E-02 
3.753E+02   3.108E+01  3.678E-02 
3.796E+02   3.094E+01  3.646E-02 
3.840E+02   3.079E+01  3.615E-02 
3.885E+02   3.065E+01  3.584E-02 
3.930E+02   3.050E+01  3.553E-02 
3.975E+02   3.036E+01  3.522E-02 
4.021E+02   3.021E+01  3.492E-02 
4.068E+02   3.007E+01  3.462E-02 
4.115E+02   2.992E+01  3.432E-02 
4.163E+02   2.978E+01  3.403E-02 
4.211E+02   2.964E+01  3.373E-02 
4.260E+02   2.949E+01  3.344E-02 
4.310E+02   2.935E+01  3.315E-02 
4.360E+02   2.921E+01  3.286E-02 
4.410E+02   2.907E+01  3.258E-02 
4.461E+02   2.892E+01  3.230E-02 
4.513E+02   2.878E+01  3.202E-02 
4.565E+02   2.864E+01  3.174E-02 
4.618E+02   2.850E+01  3.146E-02 
4.672E+02   2.836E+01  3.119E-02 
4.726E+02   2.822E+01  3.092E-02 
4.781E+02   2.809E+01  3.065E-02 
4.836E+02   2.795E+01  3.038E-02 
4.892E+02   2.781E+01  3.011E-02 
4.949E+02   2.767E+01  2.985E-02 
5.007E+02   2.753E+01  2.959E-02 
5.065E+02   2.740E+01  2.933E-02 
5.123E+02   2.726E+01  2.907E-02 
5.183E+02   2.713E+01  2.882E-02 
5.243E+02   2.699E+01  2.856E-02 
5.304E+02   2.686E+01  2.831E-02 
5.365E+02   2.673E+01  2.806E-02 
5.428E+02   2.659E+01  2.782E-02 
5.490E+02   2.646E+01  2.757E-02 
5.554E+02   2.633E+01  2.733E-02 
5.619E+02   2.620E+01  2.709E-02 
5.684E+02   2.607E+01  2.685E-02 
5.750E+02   2.594E+01  2.661E-02 
5.816E+02   2.581E+01  2.637E-02 
5.884E+02   2.568E+01  2.614E-02 
5.952E+02   2.555E+01  2.591E-02 
6.021E+02   2.542E+01  2.568E-02 
6.091E+02   2.530E+01  2.545E-02 
6.162E+02   2.517E+01  2.523E-02 
6.233E+02   2.504E+01  2.500E-02 
6.305E+02   2.492E+01  2.478E-02 
6.378E+02   2.479E+01  2.456E-02 
6.452E+02   2.467E+01  2.434E-02 
6.527E+02   2.455E+01  2.412E-02 
6.603E+02   2.442E+01  2.391E-02 
6.680E+02   2.430E+01  2.369E-02 
6.757E+02   2.418E+01  2.348E-02 
6.835E+02   2.406E+01  2.327E-02 
6.915E+02   2.394E+01  2.306E-02 
6.995E+02   2.382E+01  2.286E-02 
7.076E+02   2.370E+01  2.265E-02 
7.158E+02   2.358E+01  2.245E-02 
7.241E+02   2.346E+01  2.225E-02 
7.325E+02   2.334E+01  2.205E-02 
7.410E+02   2.323E+01  2.185E-02 
7.496E+02   2.311E+01  2.165E-02 
7.583E+02   2.299E+01  2.146E-02 
7.671E+02   2.288E+01  2.127E-02 
7.760E+02   2.276E+01  2.107E-02 
7.850E+02   2.265E+01  2.088E-02 
7.941E+02   2.253E+01  2.070E-02 
8.033E+02   2.242E+01  2.051E-02 
8.126E+02   2.230E+01  2.032E-02 
8.221E+02   2.219E+01  2.014E-02 
8.316E+02   2.208E+01  1.996E-02 
