Ion = Helium      . Mass = 4.0026
Tgt = Sm (Solid). Density = 7.52 g/cm3
Stopping Units =  eV/(1E15 atoms/cm2)
Energy(keV)  S(Elec)    S(Nuc)
1.000E+00   5.453E+00  2.056E+00 
1.013E+00   5.488E+00  2.062E+00 
1.026E+00   5.524E+00  2.067E+00 
1.039E+00   5.560E+00  2.073E+00 
1.053E+00   5.596E+00  2.078E+00 
1.067E+00   5.632E+00  2.083E+00 
1.081E+00   5.668E+00  2.089E+00 
1.095E+00   5.705E+00  2.094E+00 
1.109E+00   5.742E+00  2.099E+00 
1.123E+00   5.779E+00  2.105E+00 
1.138E+00   5.817E+00  2.110E+00 
1.153E+00   5.854E+00  2.115E+00 
1.168E+00   5.892E+00  2.120E+00 
1.183E+00   5.930E+00  2.125E+00 
1.198E+00   5.969E+00  2.130E+00 
1.214E+00   6.007E+00  2.136E+00 
1.229E+00   6.046E+00  2.141E+00 
1.245E+00   6.086E+00  2.146E+00 
1.262E+00   6.125E+00  2.151E+00 
1.278E+00   6.165E+00  2.156E+00 
1.295E+00   6.205E+00  2.161E+00 
1.311E+00   6.245E+00  2.166E+00 
1.329E+00   6.285E+00  2.171E+00 
1.346E+00   6.326E+00  2.175E+00 
1.363E+00   6.367E+00  2.180E+00 
1.381E+00   6.408E+00  2.185E+00 
1.399E+00   6.450E+00  2.190E+00 
1.417E+00   6.491E+00  2.195E+00 
1.436E+00   6.533E+00  2.199E+00 
1.454E+00   6.576E+00  2.204E+00 
1.473E+00   6.618E+00  2.209E+00 
1.492E+00   6.661E+00  2.213E+00 
1.512E+00   6.704E+00  2.218E+00 
1.531E+00   6.748E+00  2.222E+00 
1.551E+00   6.792E+00  2.227E+00 
1.571E+00   6.836E+00  2.231E+00 
1.592E+00   6.880E+00  2.236E+00 
1.612E+00   6.924E+00  2.240E+00 
1.633E+00   6.969E+00  2.245E+00 
1.655E+00   7.014E+00  2.249E+00 
1.676E+00   7.060E+00  2.253E+00 
1.698E+00   7.106E+00  2.258E+00 
1.720E+00   7.152E+00  2.262E+00 
1.742E+00   7.198E+00  2.266E+00 
1.765E+00   7.244E+00  2.270E+00 
1.788E+00   7.291E+00  2.274E+00 
1.811E+00   7.339E+00  2.278E+00 
1.835E+00   7.386E+00  2.283E+00 
1.859E+00   7.434E+00  2.287E+00 
1.883E+00   7.482E+00  2.290E+00 
1.907E+00   7.531E+00  2.294E+00 
1.932E+00   7.579E+00  2.298E+00 
1.957E+00   7.629E+00  2.302E+00 
1.983E+00   7.678E+00  2.306E+00 
2.008E+00   7.728E+00  2.310E+00 
2.034E+00   7.778E+00  2.313E+00 
2.061E+00   7.828E+00  2.317E+00 
2.088E+00   7.879E+00  2.321E+00 
2.115E+00   7.930E+00  2.324E+00 
2.142E+00   7.981E+00  2.328E+00 
2.170E+00   8.033E+00  2.331E+00 
2.198E+00   8.085E+00  2.335E+00 
2.227E+00   8.137E+00  2.338E+00 
2.256E+00   8.190E+00  2.342E+00 
2.285E+00   8.243E+00  2.345E+00 
2.315E+00   8.296E+00  2.348E+00 
2.345E+00   8.350E+00  2.351E+00 
2.375E+00   8.404E+00  2.355E+00 
2.406E+00   8.459E+00  2.358E+00 
2.438E+00   8.513E+00  2.361E+00 
2.469E+00   8.569E+00  2.364E+00 
2.501E+00   8.624E+00  2.367E+00 
2.534E+00   8.680E+00  2.370E+00 
2.567E+00   8.736E+00  2.373E+00 
2.600E+00   8.793E+00  2.376E+00 
2.634E+00   8.850E+00  2.378E+00 
2.668E+00   8.907E+00  2.381E+00 
2.703E+00   8.965E+00  2.384E+00 
2.738E+00   9.023E+00  2.387E+00 
2.773E+00   9.081E+00  2.389E+00 
2.810E+00   9.140E+00  2.392E+00 
2.846E+00   9.199E+00  2.394E+00 
2.883E+00   9.259E+00  2.397E+00 
2.921E+00   9.319E+00  2.399E+00 
2.958E+00   9.379E+00  2.401E+00 
2.997E+00   9.440E+00  2.404E+00 
3.036E+00   9.501E+00  2.406E+00 
3.075E+00   9.563E+00  2.408E+00 
3.115E+00   9.625E+00  2.410E+00 
3.156E+00   9.687E+00  2.412E+00 
3.197E+00   9.750E+00  2.414E+00 
3.238E+00   9.813E+00  2.416E+00 
3.280E+00   9.876E+00  2.418E+00 
3.323E+00   9.940E+00  2.420E+00 
3.366E+00   1.000E+01  2.422E+00 
3.410E+00   1.007E+01  2.423E+00 
3.454E+00   1.013E+01  2.425E+00 
3.499E+00   1.020E+01  2.427E+00 
3.545E+00   1.027E+01  2.428E+00 
3.591E+00   1.033E+01  2.430E+00 
3.637E+00   1.040E+01  2.431E+00 
3.685E+00   1.047E+01  2.432E+00 
3.733E+00   1.054E+01  2.434E+00 
3.781E+00   1.060E+01  2.435E+00 
3.830E+00   1.067E+01  2.436E+00 
3.880E+00   1.074E+01  2.437E+00 
3.930E+00   1.081E+01  2.438E+00 
3.982E+00   1.088E+01  2.439E+00 
4.033E+00   1.095E+01  2.440E+00 
4.086E+00   1.102E+01  2.441E+00 
4.139E+00   1.109E+01  2.442E+00 
4.193E+00   1.117E+01  2.443E+00 
4.247E+00   1.124E+01  2.444E+00 
4.302E+00   1.131E+01  2.444E+00 
4.358E+00   1.138E+01  2.445E+00 
4.415E+00   1.146E+01  2.445E+00 
4.472E+00   1.153E+01  2.446E+00 
4.530E+00   1.161E+01  2.446E+00 
4.589E+00   1.168E+01  2.446E+00 
4.649E+00   1.176E+01  2.447E+00 
4.709E+00   1.183E+01  2.447E+00 
4.770E+00   1.191E+01  2.447E+00 
4.832E+00   1.199E+01  2.447E+00 
4.895E+00   1.206E+01  2.447E+00 
4.959E+00   1.214E+01  2.447E+00 
5.023E+00   1.222E+01  2.447E+00 
5.089E+00   1.230E+01  2.447E+00 
5.155E+00   1.238E+01  2.446E+00 
5.222E+00   1.246E+01  2.446E+00 
5.290E+00   1.254E+01  2.446E+00 
5.358E+00   1.262E+01  2.445E+00 
5.428E+00   1.270E+01  2.444E+00 
5.499E+00   1.279E+01  2.444E+00 
5.570E+00   1.287E+01  2.443E+00 
5.642E+00   1.295E+01  2.442E+00 
5.716E+00   1.304E+01  2.442E+00 
5.790E+00   1.312E+01  2.441E+00 
5.865E+00   1.321E+01  2.440E+00 
5.942E+00   1.329E+01  2.439E+00 
6.019E+00   1.338E+01  2.438E+00 
6.097E+00   1.346E+01  2.437E+00 
6.176E+00   1.355E+01  2.435E+00 
6.256E+00   1.364E+01  2.434E+00 
6.338E+00   1.373E+01  2.433E+00 
6.420E+00   1.382E+01  2.431E+00 
6.504E+00   1.391E+01  2.430E+00 
6.588E+00   1.400E+01  2.428E+00 
6.674E+00   1.409E+01  2.426E+00 
6.760E+00   1.418E+01  2.425E+00 
6.848E+00   1.427E+01  2.423E+00 
6.937E+00   1.436E+01  2.421E+00 
7.027E+00   1.446E+01  2.419E+00 
7.119E+00   1.455E+01  2.417E+00 
7.211E+00   1.464E+01  2.415E+00 
7.305E+00   1.474E+01  2.413E+00 
7.400E+00   1.483E+01  2.411E+00 
7.496E+00   1.493E+01  2.408E+00 
7.594E+00   1.503E+01  2.406E+00 
7.692E+00   1.512E+01  2.404E+00 
7.792E+00   1.522E+01  2.401E+00 
7.894E+00   1.532E+01  2.399E+00 
7.996E+00   1.542E+01  2.396E+00 
8.100E+00   1.552E+01  2.393E+00 
8.205E+00   1.562E+01  2.391E+00 
8.312E+00   1.573E+01  2.388E+00 
8.420E+00   1.583E+01  2.385E+00 
8.529E+00   1.594E+01  2.382E+00 
8.640E+00   1.605E+01  2.379E+00 
8.753E+00   1.615E+01  2.376E+00 
8.866E+00   1.626E+01  2.373E+00 
8.982E+00   1.637E+01  2.369E+00 
9.098E+00   1.648E+01  2.366E+00 
9.217E+00   1.660E+01  2.363E+00 
9.336E+00   1.671E+01  2.359E+00 
9.458E+00   1.682E+01  2.356E+00 
9.581E+00   1.694E+01  2.352E+00 
9.705E+00   1.706E+01  2.348E+00 
9.831E+00   1.717E+01  2.345E+00 
9.959E+00   1.729E+01  2.341E+00 
1.009E+01   1.741E+01  2.337E+00 
1.022E+01   1.753E+01  2.333E+00 
1.035E+01   1.766E+01  2.329E+00 
1.049E+01   1.778E+01  2.325E+00 
1.062E+01   1.791E+01  2.321E+00 
1.076E+01   1.803E+01  2.316E+00 
1.090E+01   1.816E+01  2.312E+00 
1.104E+01   1.829E+01  2.308E+00 
1.119E+01   1.842E+01  2.303E+00 
1.133E+01   1.855E+01  2.299E+00 
1.148E+01   1.868E+01  2.294E+00 
1.163E+01   1.882E+01  2.290E+00 
1.178E+01   1.895E+01  2.285E+00 
1.193E+01   1.909E+01  2.280E+00 
1.209E+01   1.923E+01  2.276E+00 
1.224E+01   1.937E+01  2.271E+00 
1.240E+01   1.951E+01  2.266E+00 
1.256E+01   1.965E+01  2.261E+00 
1.273E+01   1.979E+01  2.256E+00 
1.289E+01   1.994E+01  2.251E+00 
1.306E+01   2.008E+01  2.245E+00 
1.323E+01   2.023E+01  2.240E+00 
1.340E+01   2.038E+01  2.235E+00 
1.358E+01   2.053E+01  2.229E+00 
1.375E+01   2.068E+01  2.224E+00 
1.393E+01   2.083E+01  2.219E+00 
1.411E+01   2.099E+01  2.213E+00 
1.430E+01   2.115E+01  2.207E+00 
1.448E+01   2.130E+01  2.202E+00 
1.467E+01   2.146E+01  2.196E+00 
1.486E+01   2.162E+01  2.190E+00 
1.505E+01   2.179E+01  2.184E+00 
1.525E+01   2.195E+01  2.178E+00 
1.545E+01   2.212E+01  2.173E+00 
1.565E+01   2.229E+01  2.166E+00 
1.585E+01   2.245E+01  2.160E+00 
1.606E+01   2.263E+01  2.154E+00 
1.627E+01   2.280E+01  2.148E+00 
1.648E+01   2.297E+01  2.142E+00 
1.669E+01   2.315E+01  2.136E+00 
1.691E+01   2.333E+01  2.129E+00 
1.713E+01   2.350E+01  2.123E+00 
1.735E+01   2.369E+01  2.116E+00 
1.758E+01   2.387E+01  2.110E+00 
1.781E+01   2.405E+01  2.103E+00 
1.804E+01   2.424E+01  2.097E+00 
1.827E+01   2.443E+01  2.090E+00 
1.851E+01   2.462E+01  2.084E+00 
1.875E+01   2.481E+01  2.077E+00 
1.899E+01   2.500E+01  2.070E+00 
1.924E+01   2.520E+01  2.063E+00 
1.949E+01   2.540E+01  2.056E+00 
1.974E+01   2.559E+01  2.049E+00 
2.000E+01   2.580E+01  2.042E+00 
2.026E+01   2.600E+01  2.035E+00 
2.052E+01   2.620E+01  2.028E+00 
2.079E+01   2.641E+01  2.021E+00 
2.106E+01   2.662E+01  2.014E+00 
2.133E+01   2.683E+01  2.007E+00 
2.161E+01   2.704E+01  2.000E+00 
2.189E+01   2.726E+01  1.992E+00 
2.218E+01   2.748E+01  1.985E+00 
2.247E+01   2.769E+01  1.978E+00 
2.276E+01   2.792E+01  1.970E+00 
2.305E+01   2.814E+01  1.963E+00 
2.335E+01   2.836E+01  1.956E+00 
2.366E+01   2.859E+01  1.948E+00 
2.396E+01   2.882E+01  1.941E+00 
2.428E+01   2.905E+01  1.933E+00 
2.459E+01   2.929E+01  1.925E+00 
2.491E+01   2.952E+01  1.918E+00 
2.523E+01   2.976E+01  1.910E+00 
2.556E+01   3.000E+01  1.902E+00 
2.589E+01   3.025E+01  1.895E+00 
2.623E+01   3.049E+01  1.887E+00 
2.657E+01   3.074E+01  1.879E+00 
2.692E+01   3.099E+01  1.871E+00 
2.727E+01   3.124E+01  1.863E+00 
2.762E+01   3.150E+01  1.856E+00 
2.798E+01   3.175E+01  1.848E+00 
2.834E+01   3.201E+01  1.840E+00 
2.871E+01   3.227E+01  1.832E+00 
2.909E+01   3.254E+01  1.824E+00 
2.946E+01   3.280E+01  1.816E+00 
2.985E+01   3.307E+01  1.808E+00 
3.023E+01   3.334E+01  1.800E+00 
3.063E+01   3.362E+01  1.792E+00 
3.103E+01   3.389E+01  1.784E+00 
3.143E+01   3.417E+01  1.776E+00 
3.184E+01   3.445E+01  1.767E+00 
3.225E+01   3.474E+01  1.759E+00 
3.267E+01   3.502E+01  1.751E+00 
3.309E+01   3.531E+01  1.743E+00 
3.352E+01   3.560E+01  1.735E+00 
3.396E+01   3.590E+01  1.726E+00 
3.440E+01   3.619E+01  1.718E+00 
3.485E+01   3.649E+01  1.710E+00 
3.530E+01   3.679E+01  1.702E+00 
3.576E+01   3.710E+01  1.693E+00 
3.623E+01   3.740E+01  1.685E+00 
3.670E+01   3.771E+01  1.677E+00 
3.717E+01   3.803E+01  1.669E+00 
3.766E+01   3.834E+01  1.660E+00 
3.815E+01   3.866E+01  1.652E+00 
3.864E+01   3.898E+01  1.644E+00 
3.914E+01   3.930E+01  1.635E+00 
3.965E+01   3.963E+01  1.627E+00 
4.017E+01   3.996E+01  1.619E+00 
4.069E+01   4.029E+01  1.610E+00 
4.122E+01   4.062E+01  1.602E+00 
4.175E+01   4.096E+01  1.593E+00 
4.230E+01   4.130E+01  1.585E+00 
4.285E+01   4.164E+01  1.577E+00 
4.340E+01   4.199E+01  1.568E+00 
4.397E+01   4.234E+01  1.560E+00 
4.454E+01   4.269E+01  1.551E+00 
4.512E+01   4.304E+01  1.543E+00 
4.570E+01   4.340E+01  1.535E+00 
4.630E+01   4.376E+01  1.526E+00 
4.690E+01   4.412E+01  1.518E+00 
4.751E+01   4.448E+01  1.509E+00 
4.813E+01   4.485E+01  1.501E+00 
4.875E+01   4.522E+01  1.493E+00 
4.939E+01   4.560E+01  1.484E+00 
5.003E+01   4.597E+01  1.476E+00 
5.068E+01   4.635E+01  1.468E+00 
5.134E+01   4.673E+01  1.459E+00 
5.200E+01   4.712E+01  1.451E+00 
5.268E+01   4.751E+01  1.442E+00 
5.336E+01   4.790E+01  1.434E+00 
5.406E+01   4.829E+01  1.426E+00 
5.476E+01   4.869E+01  1.417E+00 
5.547E+01   4.909E+01  1.409E+00 
5.619E+01   4.949E+01  1.401E+00 
5.692E+01   4.989E+01  1.393E+00 
5.766E+01   5.030E+01  1.384E+00 
5.841E+01   5.071E+01  1.376E+00 
5.917E+01   5.113E+01  1.368E+00 
5.994E+01   5.154E+01  1.359E+00 
6.072E+01   5.196E+01  1.351E+00 
6.151E+01   5.238E+01  1.343E+00 
6.231E+01   5.281E+01  1.335E+00 
6.312E+01   5.324E+01  1.326E+00 
6.394E+01   5.367E+01  1.318E+00 
6.477E+01   5.410E+01  1.310E+00 
6.561E+01   5.454E+01  1.302E+00 
6.646E+01   5.498E+01  1.294E+00 
6.733E+01   5.542E+01  1.286E+00 
6.820E+01   5.586E+01  1.278E+00 
6.909E+01   5.631E+01  1.269E+00 
6.999E+01   5.676E+01  1.261E+00 
7.090E+01   5.721E+01  1.253E+00 
7.182E+01   5.767E+01  1.245E+00 
7.275E+01   5.813E+01  1.237E+00 
7.370E+01   5.859E+01  1.229E+00 
7.465E+01   5.905E+01  1.221E+00 
7.562E+01   5.952E+01  1.213E+00 
7.661E+01   5.999E+01  1.205E+00 
7.760E+01   6.046E+01  1.197E+00 
7.861E+01   6.093E+01  1.190E+00 
7.963E+01   6.141E+01  1.182E+00 
8.067E+01   6.189E+01  1.174E+00 
8.172E+01   6.237E+01  1.166E+00 
8.278E+01   6.286E+01  1.158E+00 
8.385E+01   6.334E+01  1.150E+00 
8.494E+01   6.383E+01  1.143E+00 
8.605E+01   6.432E+01  1.135E+00 
8.717E+01   6.482E+01  1.127E+00 
8.830E+01   6.531E+01  1.120E+00 
8.945E+01   6.581E+01  1.112E+00 
9.061E+01   6.631E+01  1.104E+00 
9.179E+01   6.682E+01  1.097E+00 
9.298E+01   6.732E+01  1.089E+00 
9.419E+01   6.783E+01  1.081E+00 
9.541E+01   6.834E+01  1.074E+00 
9.665E+01   6.885E+01  1.066E+00 
9.791E+01   6.937E+01  1.059E+00 
9.918E+01   6.989E+01  1.052E+00 
1.005E+02   7.040E+01  1.044E+00 
1.018E+02   7.093E+01  1.037E+00 
1.031E+02   7.145E+01  1.029E+00 
1.044E+02   7.197E+01  1.022E+00 
1.058E+02   7.250E+01  1.015E+00 
1.072E+02   7.303E+01  1.007E+00 
1.086E+02   7.356E+01  1.000E+00 
1.100E+02   7.409E+01  9.930E-01 
1.114E+02   7.463E+01  9.858E-01 
1.129E+02   7.517E+01  9.787E-01 
1.143E+02   7.570E+01  9.715E-01 
1.158E+02   7.624E+01  9.644E-01 
1.173E+02   7.679E+01  9.574E-01 
1.188E+02   7.733E+01  9.503E-01 
1.204E+02   7.788E+01  9.433E-01 
1.219E+02   7.842E+01  9.364E-01 
1.235E+02   7.897E+01  9.294E-01 
1.251E+02   7.952E+01  9.225E-01 
1.268E+02   8.007E+01  9.156E-01 
1.284E+02   8.062E+01  9.088E-01 
1.301E+02   8.118E+01  9.020E-01 
1.318E+02   8.173E+01  8.952E-01 
1.335E+02   8.229E+01  8.885E-01 
1.352E+02   8.285E+01  8.817E-01 
1.370E+02   8.341E+01  8.751E-01 
1.388E+02   8.397E+01  8.684E-01 
1.406E+02   8.453E+01  8.618E-01 
1.424E+02   8.509E+01  8.552E-01 
1.442E+02   8.565E+01  8.487E-01 
1.461E+02   8.622E+01  8.421E-01 
1.480E+02   8.678E+01  8.357E-01 
1.499E+02   8.735E+01  8.292E-01 
1.519E+02   8.791E+01  8.228E-01 
1.539E+02   8.848E+01  8.164E-01 
1.559E+02   8.905E+01  8.100E-01 
1.579E+02   8.962E+01  8.037E-01 
1.599E+02   9.018E+01  7.974E-01 
1.620E+02   9.075E+01  7.912E-01 
1.641E+02   9.132E+01  7.850E-01 
1.662E+02   9.189E+01  7.788E-01 
1.684E+02   9.246E+01  7.726E-01 
1.706E+02   9.303E+01  7.665E-01 
1.728E+02   9.360E+01  7.604E-01 
1.751E+02   9.417E+01  7.544E-01 
1.773E+02   9.474E+01  7.484E-01 
1.796E+02   9.531E+01  7.424E-01 
1.820E+02   9.587E+01  7.365E-01 
1.843E+02   9.644E+01  7.306E-01 
1.867E+02   9.701E+01  7.247E-01 
1.892E+02   9.758E+01  7.188E-01 
1.916E+02   9.814E+01  7.130E-01 
1.941E+02   9.871E+01  7.072E-01 
1.966E+02   9.927E+01  7.015E-01 
1.992E+02   9.984E+01  6.958E-01 
2.018E+02   1.004E+02  6.901E-01 
2.044E+02   1.010E+02  6.845E-01 
2.071E+02   1.015E+02  6.789E-01 
2.097E+02   1.021E+02  6.733E-01 
2.125E+02   1.026E+02  6.678E-01 
2.152E+02   1.032E+02  6.623E-01 
2.180E+02   1.038E+02  6.568E-01 
2.209E+02   1.043E+02  6.514E-01 
2.237E+02   1.049E+02  6.460E-01 
2.266E+02   1.054E+02  6.406E-01 
2.296E+02   1.060E+02  6.353E-01 
2.326E+02   1.065E+02  6.300E-01 
2.356E+02   1.070E+02  6.247E-01 
2.387E+02   1.076E+02  6.195E-01 
2.418E+02   1.081E+02  6.143E-01 
2.449E+02   1.087E+02  6.091E-01 
2.481E+02   1.092E+02  6.040E-01 
2.513E+02   1.097E+02  5.989E-01 
2.546E+02   1.102E+02  5.938E-01 
2.579E+02   1.108E+02  5.888E-01 
2.612E+02   1.113E+02  5.838E-01 
2.646E+02   1.118E+02  5.788E-01 
2.681E+02   1.123E+02  5.739E-01 
2.716E+02   1.128E+02  5.690E-01 
2.751E+02   1.133E+02  5.642E-01 
2.787E+02   1.138E+02  5.593E-01 
2.823E+02   1.143E+02  5.545E-01 
2.859E+02   1.148E+02  5.498E-01 
2.897E+02   1.153E+02  5.450E-01 
2.934E+02   1.158E+02  5.403E-01 
2.972E+02   1.163E+02  5.356E-01 
3.011E+02   1.168E+02  5.310E-01 
3.050E+02   1.172E+02  5.264E-01 
3.090E+02   1.177E+02  5.218E-01 
3.130E+02   1.182E+02  5.173E-01 
3.171E+02   1.186E+02  5.128E-01 
3.212E+02   1.191E+02  5.083E-01 
3.254E+02   1.195E+02  5.039E-01 
3.296E+02   1.200E+02  4.995E-01 
3.339E+02   1.204E+02  4.951E-01 
3.382E+02   1.209E+02  4.907E-01 
3.426E+02   1.213E+02  4.864E-01 
3.471E+02   1.217E+02  4.821E-01 
3.516E+02   1.221E+02  4.779E-01 
3.561E+02   1.225E+02  4.736E-01 
3.608E+02   1.229E+02  4.694E-01 
3.655E+02   1.233E+02  4.653E-01 
3.702E+02   1.237E+02  4.611E-01 
3.750E+02   1.241E+02  4.570E-01 
3.799E+02   1.245E+02  4.530E-01 
3.848E+02   1.248E+02  4.489E-01 
3.898E+02   1.252E+02  4.449E-01 
3.949E+02   1.256E+02  4.409E-01 
4.000E+02   1.259E+02  4.370E-01 
4.052E+02   1.263E+02  4.330E-01 
4.105E+02   1.266E+02  4.292E-01 
4.158E+02   1.269E+02  4.253E-01 
4.212E+02   1.272E+02  4.215E-01 
4.267E+02   1.275E+02  4.176E-01 
4.323E+02   1.279E+02  4.139E-01 
4.379E+02   1.282E+02  4.101E-01 
4.436E+02   1.284E+02  4.089E-01 
4.493E+02   1.287E+02  4.052E-01 
4.552E+02   1.290E+02  4.015E-01 
4.611E+02   1.293E+02  3.978E-01 
4.671E+02   1.295E+02  3.942E-01 
4.731E+02   1.298E+02  3.906E-01 
4.793E+02   1.300E+02  3.870E-01 
4.855E+02   1.302E+02  3.835E-01 
4.918E+02   1.305E+02  3.800E-01 
4.982E+02   1.307E+02  3.765E-01 
5.047E+02   1.309E+02  3.730E-01 
5.113E+02   1.311E+02  3.696E-01 
5.179E+02   1.313E+02  3.661E-01 
5.246E+02   1.315E+02  3.628E-01 
5.315E+02   1.316E+02  3.594E-01 
5.384E+02   1.318E+02  3.561E-01 
5.454E+02   1.320E+02  3.527E-01 
5.524E+02   1.321E+02  3.495E-01 
5.596E+02   1.322E+02  3.462E-01 
5.669E+02   1.324E+02  3.430E-01 
5.743E+02   1.325E+02  3.398E-01 
5.817E+02   1.326E+02  3.366E-01 
5.893E+02   1.327E+02  3.334E-01 
5.969E+02   1.328E+02  3.303E-01 
6.047E+02   1.329E+02  3.272E-01 
6.126E+02   1.329E+02  3.241E-01 
6.205E+02   1.330E+02  3.211E-01 
6.286E+02   1.331E+02  3.181E-01 
6.368E+02   1.331E+02  3.151E-01 
6.450E+02   1.332E+02  3.121E-01 
6.534E+02   1.332E+02  3.091E-01 
6.619E+02   1.332E+02  3.062E-01 
6.705E+02   1.332E+02  3.033E-01 
6.792E+02   1.332E+02  3.004E-01 
6.881E+02   1.332E+02  2.976E-01 
6.970E+02   1.332E+02  2.947E-01 
7.061E+02   1.332E+02  2.919E-01 
7.152E+02   1.331E+02  2.892E-01 
7.245E+02   1.331E+02  2.864E-01 
7.339E+02   1.330E+02  2.837E-01 
7.435E+02   1.330E+02  2.809E-01 
7.531E+02   1.329E+02  2.782E-01 
7.629E+02   1.328E+02  2.756E-01 
7.728E+02   1.327E+02  2.729E-01 
7.829E+02   1.326E+02  2.703E-01 
7.931E+02   1.325E+02  2.677E-01 
8.034E+02   1.324E+02  2.651E-01 
8.138E+02   1.323E+02  2.626E-01 
8.244E+02   1.322E+02  2.600E-01 
8.351E+02   1.320E+02  2.575E-01 
8.460E+02   1.319E+02  2.550E-01 
8.570E+02   1.317E+02  2.526E-01 
8.681E+02   1.316E+02  2.501E-01 
8.794E+02   1.314E+02  2.477E-01 
8.908E+02   1.312E+02  2.453E-01 
9.024E+02   1.310E+02  2.429E-01 
9.141E+02   1.308E+02  2.405E-01 
9.260E+02   1.306E+02  2.382E-01 
9.380E+02   1.304E+02  2.359E-01 
9.502E+02   1.302E+02  2.336E-01 
9.626E+02   1.300E+02  2.313E-01 
9.751E+02   1.297E+02  2.290E-01 
9.877E+02   1.295E+02  2.268E-01 
1.001E+03   1.292E+02  2.246E-01 
1.014E+03   1.290E+02  2.223E-01 
1.027E+03   1.287E+02  2.202E-01 
1.040E+03   1.284E+02  2.180E-01 
1.054E+03   1.281E+02  2.159E-01 
1.067E+03   1.279E+02  2.137E-01 
1.081E+03   1.276E+02  2.116E-01 
1.095E+03   1.273E+02  2.095E-01 
1.109E+03   1.270E+02  2.075E-01 
1.124E+03   1.266E+02  2.054E-01 
1.138E+03   1.263E+02  2.034E-01 
1.153E+03   1.260E+02  2.014E-01 
1.168E+03   1.257E+02  1.994E-01 
1.183E+03   1.253E+02  1.974E-01 
1.199E+03   1.250E+02  1.954E-01 
1.214E+03   1.246E+02  1.935E-01 
1.230E+03   1.243E+02  1.916E-01 
1.246E+03   1.239E+02  1.897E-01 
1.262E+03   1.235E+02  1.878E-01 
1.279E+03   1.232E+02  1.859E-01 
1.295E+03   1.228E+02  1.841E-01 
1.312E+03   1.224E+02  1.822E-01 
1.329E+03   1.220E+02  1.804E-01 
1.347E+03   1.216E+02  1.786E-01 
1.364E+03   1.212E+02  1.768E-01 
1.382E+03   1.208E+02  1.750E-01 
1.400E+03   1.204E+02  1.733E-01 
1.418E+03   1.200E+02  1.715E-01 
1.436E+03   1.196E+02  1.698E-01 
1.455E+03   1.191E+02  1.681E-01 
1.474E+03   1.187E+02  1.664E-01 
1.493E+03   1.183E+02  1.647E-01 
1.513E+03   1.178E+02  1.631E-01 
1.532E+03   1.174E+02  1.614E-01 
1.552E+03   1.170E+02  1.598E-01 
1.572E+03   1.165E+02  1.582E-01 
1.593E+03   1.161E+02  1.566E-01 
1.613E+03   1.156E+02  1.550E-01 
1.634E+03   1.151E+02  1.535E-01 
1.656E+03   1.147E+02  1.519E-01 
1.677E+03   1.142E+02  1.504E-01 
1.699E+03   1.137E+02  1.488E-01 
1.721E+03   1.133E+02  1.473E-01 
1.743E+03   1.128E+02  1.458E-01 
1.766E+03   1.123E+02  1.444E-01 
1.789E+03   1.118E+02  1.429E-01 
1.812E+03   1.114E+02  1.414E-01 
1.836E+03   1.109E+02  1.400E-01 
1.860E+03   1.104E+02  1.386E-01 
