Ion = Helium      . Mass = 4.0026
Tgt = Te (Solid). Density = 6.25 g/cm3
Stopping Units =  eV/(1E15 atoms/cm2)
Energy(keV)  S(Elec)    S(Nuc)
1.000E+00   4.960E+00  2.188E+00 
1.013E+00   4.992E+00  2.193E+00 
1.026E+00   5.024E+00  2.198E+00 
1.039E+00   5.057E+00  2.203E+00 
1.053E+00   5.090E+00  2.208E+00 
1.067E+00   5.122E+00  2.213E+00 
1.081E+00   5.156E+00  2.218E+00 
1.095E+00   5.189E+00  2.223E+00 
1.109E+00   5.223E+00  2.227E+00 
1.123E+00   5.257E+00  2.232E+00 
1.138E+00   5.291E+00  2.237E+00 
1.153E+00   5.325E+00  2.242E+00 
1.168E+00   5.359E+00  2.247E+00 
1.183E+00   5.394E+00  2.251E+00 
1.198E+00   5.429E+00  2.256E+00 
1.214E+00   5.464E+00  2.261E+00 
1.229E+00   5.500E+00  2.265E+00 
1.245E+00   5.535E+00  2.270E+00 
1.262E+00   5.571E+00  2.274E+00 
1.278E+00   5.607E+00  2.279E+00 
1.295E+00   5.643E+00  2.283E+00 
1.311E+00   5.680E+00  2.288E+00 
1.329E+00   5.717E+00  2.292E+00 
1.346E+00   5.754E+00  2.296E+00 
1.363E+00   5.791E+00  2.301E+00 
1.381E+00   5.829E+00  2.305E+00 
1.399E+00   5.866E+00  2.309E+00 
1.417E+00   5.904E+00  2.313E+00 
1.436E+00   5.943E+00  2.318E+00 
1.454E+00   5.981E+00  2.322E+00 
1.473E+00   6.020E+00  2.326E+00 
1.492E+00   6.059E+00  2.330E+00 
1.512E+00   6.098E+00  2.334E+00 
1.531E+00   6.138E+00  2.338E+00 
1.551E+00   6.177E+00  2.342E+00 
1.571E+00   6.217E+00  2.345E+00 
1.592E+00   6.258E+00  2.349E+00 
1.612E+00   6.298E+00  2.353E+00 
1.633E+00   6.339E+00  2.357E+00 
1.655E+00   6.380E+00  2.361E+00 
1.676E+00   6.421E+00  2.364E+00 
1.698E+00   6.463E+00  2.368E+00 
1.720E+00   6.505E+00  2.371E+00 
1.742E+00   6.547E+00  2.375E+00 
1.765E+00   6.589E+00  2.378E+00 
1.788E+00   6.632E+00  2.382E+00 
1.811E+00   6.675E+00  2.385E+00 
1.835E+00   6.718E+00  2.388E+00 
1.859E+00   6.762E+00  2.392E+00 
1.883E+00   6.805E+00  2.395E+00 
1.907E+00   6.850E+00  2.398E+00 
1.932E+00   6.894E+00  2.401E+00 
1.957E+00   6.939E+00  2.404E+00 
1.983E+00   6.983E+00  2.407E+00 
2.008E+00   7.029E+00  2.410E+00 
2.034E+00   7.074E+00  2.413E+00 
2.061E+00   7.120E+00  2.416E+00 
2.088E+00   7.166E+00  2.419E+00 
2.115E+00   7.213E+00  2.422E+00 
2.142E+00   7.259E+00  2.425E+00 
2.170E+00   7.306E+00  2.427E+00 
2.198E+00   7.354E+00  2.430E+00 
2.227E+00   7.401E+00  2.433E+00 
2.256E+00   7.449E+00  2.435E+00 
2.285E+00   7.497E+00  2.438E+00 
2.315E+00   7.546E+00  2.440E+00 
2.345E+00   7.595E+00  2.442E+00 
2.375E+00   7.644E+00  2.445E+00 
2.406E+00   7.694E+00  2.447E+00 
2.438E+00   7.743E+00  2.449E+00 
2.469E+00   7.794E+00  2.451E+00 
2.501E+00   7.844E+00  2.454E+00 
2.534E+00   7.895E+00  2.456E+00 
2.567E+00   7.946E+00  2.458E+00 
2.600E+00   7.998E+00  2.460E+00 
2.634E+00   8.049E+00  2.461E+00 
2.668E+00   8.101E+00  2.463E+00 
2.703E+00   8.154E+00  2.465E+00 
2.738E+00   8.207E+00  2.467E+00 
2.773E+00   8.260E+00  2.468E+00 
2.810E+00   8.313E+00  2.470E+00 
2.846E+00   8.367E+00  2.471E+00 
2.883E+00   8.421E+00  2.473E+00 
2.921E+00   8.476E+00  2.474E+00 
2.958E+00   8.531E+00  2.476E+00 
2.997E+00   8.586E+00  2.477E+00 
3.036E+00   8.642E+00  2.478E+00 
3.075E+00   8.698E+00  2.479E+00 
3.115E+00   8.754E+00  2.481E+00 
3.156E+00   8.811E+00  2.482E+00 
3.197E+00   8.868E+00  2.483E+00 
3.238E+00   8.925E+00  2.484E+00 
3.280E+00   8.983E+00  2.484E+00 
3.323E+00   9.041E+00  2.485E+00 
3.366E+00   9.100E+00  2.486E+00 
3.410E+00   9.159E+00  2.487E+00 
3.454E+00   9.218E+00  2.487E+00 
3.499E+00   9.278E+00  2.488E+00 
3.545E+00   9.338E+00  2.488E+00 
3.591E+00   9.398E+00  2.489E+00 
3.637E+00   9.459E+00  2.489E+00 
3.685E+00   9.521E+00  2.489E+00 
3.733E+00   9.582E+00  2.490E+00 
3.781E+00   9.644E+00  2.490E+00 
3.830E+00   9.707E+00  2.490E+00 
3.880E+00   9.770E+00  2.490E+00 
3.930E+00   9.833E+00  2.490E+00 
3.982E+00   9.897E+00  2.490E+00 
4.033E+00   9.961E+00  2.490E+00 
4.086E+00   1.003E+01  2.489E+00 
4.139E+00   1.009E+01  2.489E+00 
4.193E+00   1.016E+01  2.489E+00 
4.247E+00   1.022E+01  2.488E+00 
4.302E+00   1.029E+01  2.488E+00 
4.358E+00   1.035E+01  2.487E+00 
4.415E+00   1.042E+01  2.486E+00 
4.472E+00   1.049E+01  2.486E+00 
4.530E+00   1.056E+01  2.485E+00 
4.589E+00   1.063E+01  2.484E+00 
4.649E+00   1.069E+01  2.483E+00 
4.709E+00   1.076E+01  2.482E+00 
4.770E+00   1.083E+01  2.481E+00 
4.832E+00   1.090E+01  2.480E+00 
4.895E+00   1.097E+01  2.479E+00 
4.959E+00   1.104E+01  2.478E+00 
5.023E+00   1.112E+01  2.476E+00 
5.089E+00   1.119E+01  2.475E+00 
5.155E+00   1.126E+01  2.473E+00 
5.222E+00   1.133E+01  2.472E+00 
5.290E+00   1.141E+01  2.470E+00 
5.358E+00   1.148E+01  2.469E+00 
5.428E+00   1.156E+01  2.467E+00 
5.499E+00   1.163E+01  2.465E+00 
5.570E+00   1.171E+01  2.463E+00 
5.642E+00   1.178E+01  2.461E+00 
5.716E+00   1.186E+01  2.459E+00 
5.790E+00   1.193E+01  2.457E+00 
5.865E+00   1.201E+01  2.455E+00 
5.942E+00   1.209E+01  2.453E+00 
6.019E+00   1.217E+01  2.450E+00 
6.097E+00   1.225E+01  2.448E+00 
6.176E+00   1.233E+01  2.446E+00 
6.256E+00   1.241E+01  2.443E+00 
6.338E+00   1.249E+01  2.440E+00 
6.420E+00   1.257E+01  2.438E+00 
6.504E+00   1.265E+01  2.435E+00 
6.588E+00   1.273E+01  2.432E+00 
6.674E+00   1.281E+01  2.429E+00 
6.760E+00   1.290E+01  2.426E+00 
6.848E+00   1.298E+01  2.423E+00 
6.937E+00   1.306E+01  2.420E+00 
7.027E+00   1.315E+01  2.417E+00 
7.119E+00   1.323E+01  2.414E+00 
7.211E+00   1.332E+01  2.411E+00 
7.305E+00   1.341E+01  2.407E+00 
7.400E+00   1.349E+01  2.404E+00 
7.496E+00   1.358E+01  2.400E+00 
7.594E+00   1.367E+01  2.397E+00 
7.692E+00   1.376E+01  2.393E+00 
7.792E+00   1.385E+01  2.389E+00 
7.894E+00   1.393E+01  2.386E+00 
7.996E+00   1.402E+01  2.382E+00 
8.100E+00   1.412E+01  2.378E+00 
8.205E+00   1.422E+01  2.374E+00 
8.312E+00   1.432E+01  2.370E+00 
8.420E+00   1.442E+01  2.366E+00 
8.529E+00   1.452E+01  2.362E+00 
8.640E+00   1.462E+01  2.357E+00 
8.753E+00   1.472E+01  2.353E+00 
8.866E+00   1.482E+01  2.349E+00 
8.982E+00   1.493E+01  2.344E+00 
9.098E+00   1.503E+01  2.340E+00 
9.217E+00   1.514E+01  2.335E+00 
9.336E+00   1.525E+01  2.330E+00 
9.458E+00   1.536E+01  2.326E+00 
9.581E+00   1.547E+01  2.321E+00 
9.705E+00   1.558E+01  2.316E+00 
9.831E+00   1.569E+01  2.311E+00 
9.959E+00   1.580E+01  2.306E+00 
1.009E+01   1.591E+01  2.301E+00 
1.022E+01   1.603E+01  2.296E+00 
1.035E+01   1.615E+01  2.291E+00 
1.049E+01   1.626E+01  2.285E+00 
1.062E+01   1.638E+01  2.280E+00 
1.076E+01   1.650E+01  2.275E+00 
1.090E+01   1.662E+01  2.269E+00 
1.104E+01   1.674E+01  2.264E+00 
1.119E+01   1.687E+01  2.258E+00 
1.133E+01   1.699E+01  2.253E+00 
1.148E+01   1.712E+01  2.247E+00 
1.163E+01   1.725E+01  2.241E+00 
1.178E+01   1.737E+01  2.236E+00 
1.193E+01   1.750E+01  2.230E+00 
1.209E+01   1.763E+01  2.224E+00 
1.224E+01   1.777E+01  2.218E+00 
1.240E+01   1.790E+01  2.212E+00 
1.256E+01   1.803E+01  2.206E+00 
1.273E+01   1.817E+01  2.200E+00 
1.289E+01   1.831E+01  2.194E+00 
1.306E+01   1.845E+01  2.187E+00 
1.323E+01   1.859E+01  2.181E+00 
1.340E+01   1.873E+01  2.175E+00 
1.358E+01   1.887E+01  2.168E+00 
1.375E+01   1.901E+01  2.162E+00 
1.393E+01   1.916E+01  2.155E+00 
1.411E+01   1.931E+01  2.149E+00 
1.430E+01   1.946E+01  2.142E+00 
1.448E+01   1.961E+01  2.136E+00 
1.467E+01   1.976E+01  2.129E+00 
1.486E+01   1.991E+01  2.122E+00 
1.505E+01   2.007E+01  2.115E+00 
1.525E+01   2.022E+01  2.108E+00 
1.545E+01   2.038E+01  2.101E+00 
1.565E+01   2.054E+01  2.095E+00 
1.585E+01   2.070E+01  2.088E+00 
1.606E+01   2.086E+01  2.081E+00 
1.627E+01   2.103E+01  2.073E+00 
1.648E+01   2.119E+01  2.066E+00 
1.669E+01   2.136E+01  2.059E+00 
1.691E+01   2.153E+01  2.052E+00 
1.713E+01   2.170E+01  2.045E+00 
1.735E+01   2.187E+01  2.037E+00 
1.758E+01   2.205E+01  2.030E+00 
1.781E+01   2.222E+01  2.023E+00 
1.804E+01   2.240E+01  2.015E+00 
1.827E+01   2.258E+01  2.008E+00 
1.851E+01   2.276E+01  2.000E+00 
1.875E+01   2.294E+01  1.993E+00 
1.899E+01   2.313E+01  1.985E+00 
1.924E+01   2.331E+01  1.978E+00 
1.949E+01   2.350E+01  1.970E+00 
1.974E+01   2.369E+01  1.962E+00 
2.000E+01   2.389E+01  1.954E+00 
2.026E+01   2.408E+01  1.947E+00 
2.052E+01   2.428E+01  1.939E+00 
2.079E+01   2.447E+01  1.931E+00 
2.106E+01   2.467E+01  1.923E+00 
2.133E+01   2.488E+01  1.915E+00 
2.161E+01   2.508E+01  1.907E+00 
2.189E+01   2.529E+01  1.900E+00 
2.218E+01   2.549E+01  1.892E+00 
2.247E+01   2.570E+01  1.884E+00 
2.276E+01   2.592E+01  1.876E+00 
2.305E+01   2.613E+01  1.868E+00 
2.335E+01   2.635E+01  1.859E+00 
2.366E+01   2.657E+01  1.851E+00 
2.396E+01   2.679E+01  1.843E+00 
2.428E+01   2.701E+01  1.835E+00 
2.459E+01   2.723E+01  1.827E+00 
2.491E+01   2.746E+01  1.819E+00 
2.523E+01   2.769E+01  1.811E+00 
2.556E+01   2.792E+01  1.802E+00 
2.589E+01   2.816E+01  1.794E+00 
2.623E+01   2.839E+01  1.786E+00 
2.657E+01   2.863E+01  1.777E+00 
2.692E+01   2.887E+01  1.769E+00 
2.727E+01   2.912E+01  1.761E+00 
2.762E+01   2.936E+01  1.753E+00 
2.798E+01   2.961E+01  1.744E+00 
2.834E+01   2.986E+01  1.736E+00 
2.871E+01   3.011E+01  1.727E+00 
2.909E+01   3.037E+01  1.719E+00 
2.946E+01   3.063E+01  1.711E+00 
2.985E+01   3.089E+01  1.702E+00 
3.023E+01   3.115E+01  1.694E+00 
3.063E+01   3.142E+01  1.685E+00 
3.103E+01   3.169E+01  1.677E+00 
3.143E+01   3.196E+01  1.668E+00 
3.184E+01   3.223E+01  1.660E+00 
3.225E+01   3.251E+01  1.651E+00 
3.267E+01   3.279E+01  1.643E+00 
3.309E+01   3.307E+01  1.634E+00 
3.352E+01   3.335E+01  1.626E+00 
3.396E+01   3.364E+01  1.617E+00 
3.440E+01   3.393E+01  1.609E+00 
3.485E+01   3.422E+01  1.600E+00 
3.530E+01   3.452E+01  1.592E+00 
3.576E+01   3.482E+01  1.583E+00 
3.623E+01   3.512E+01  1.575E+00 
3.670E+01   3.542E+01  1.566E+00 
3.717E+01   3.573E+01  1.558E+00 
3.766E+01   3.604E+01  1.549E+00 
3.815E+01   3.635E+01  1.541E+00 
3.864E+01   3.667E+01  1.532E+00 
3.914E+01   3.698E+01  1.524E+00 
3.965E+01   3.731E+01  1.515E+00 
4.017E+01   3.763E+01  1.507E+00 
4.069E+01   3.796E+01  1.498E+00 
4.122E+01   3.829E+01  1.490E+00 
4.175E+01   3.862E+01  1.481E+00 
4.230E+01   3.896E+01  1.473E+00 
4.285E+01   3.930E+01  1.464E+00 
4.340E+01   3.964E+01  1.456E+00 
4.397E+01   3.999E+01  1.447E+00 
4.454E+01   4.034E+01  1.439E+00 
4.512E+01   4.069E+01  1.431E+00 
4.570E+01   4.105E+01  1.422E+00 
4.630E+01   4.141E+01  1.414E+00 
4.690E+01   4.177E+01  1.405E+00 
4.751E+01   4.213E+01  1.397E+00 
4.813E+01   4.250E+01  1.388E+00 
4.875E+01   4.287E+01  1.380E+00 
4.939E+01   4.325E+01  1.372E+00 
5.003E+01   4.363E+01  1.363E+00 
5.068E+01   4.401E+01  1.355E+00 
5.134E+01   4.440E+01  1.347E+00 
5.200E+01   4.478E+01  1.338E+00 
5.268E+01   4.518E+01  1.330E+00 
5.336E+01   4.557E+01  1.322E+00 
5.406E+01   4.597E+01  1.313E+00 
5.476E+01   4.637E+01  1.305E+00 
5.547E+01   4.678E+01  1.297E+00 
5.619E+01   4.719E+01  1.289E+00 
5.692E+01   4.760E+01  1.281E+00 
5.766E+01   4.802E+01  1.272E+00 
5.841E+01   4.844E+01  1.264E+00 
5.917E+01   4.886E+01  1.256E+00 
5.994E+01   4.929E+01  1.248E+00 
6.072E+01   4.972E+01  1.240E+00 
6.151E+01   5.015E+01  1.232E+00 
6.231E+01   5.058E+01  1.224E+00 
6.312E+01   5.103E+01  1.216E+00 
6.394E+01   5.147E+01  1.208E+00 
6.477E+01   5.192E+01  1.200E+00 
6.561E+01   5.237E+01  1.192E+00 
6.646E+01   5.282E+01  1.184E+00 
6.733E+01   5.328E+01  1.176E+00 
6.820E+01   5.374E+01  1.168E+00 
6.909E+01   5.420E+01  1.160E+00 
6.999E+01   5.467E+01  1.152E+00 
7.090E+01   5.514E+01  1.144E+00 
7.182E+01   5.561E+01  1.137E+00 
7.275E+01   5.609E+01  1.129E+00 
7.370E+01   5.657E+01  1.121E+00 
7.465E+01   5.706E+01  1.113E+00 
7.562E+01   5.754E+01  1.106E+00 
7.661E+01   5.803E+01  1.098E+00 
7.760E+01   5.853E+01  1.090E+00 
7.861E+01   5.902E+01  1.083E+00 
7.963E+01   5.952E+01  1.075E+00 
8.067E+01   6.003E+01  1.068E+00 
8.172E+01   6.053E+01  1.060E+00 
8.278E+01   6.104E+01  1.053E+00 
8.385E+01   6.155E+01  1.045E+00 
8.494E+01   6.207E+01  1.038E+00 
8.605E+01   6.259E+01  1.030E+00 
8.717E+01   6.311E+01  1.023E+00 
8.830E+01   6.363E+01  1.016E+00 
8.945E+01   6.416E+01  1.008E+00 
9.061E+01   6.469E+01  1.001E+00 
9.179E+01   6.522E+01  9.937E-01 
9.298E+01   6.575E+01  9.865E-01 
9.419E+01   6.629E+01  9.793E-01 
9.541E+01   6.683E+01  9.721E-01 
9.665E+01   6.737E+01  9.650E-01 
9.791E+01   6.792E+01  9.579E-01 
9.918E+01   6.846E+01  9.508E-01 
1.005E+02   6.901E+01  9.438E-01 
1.018E+02   6.956E+01  9.367E-01 
1.031E+02   7.011E+01  9.298E-01 
1.044E+02   7.067E+01  9.228E-01 
1.058E+02   7.123E+01  9.159E-01 
1.072E+02   7.178E+01  9.090E-01 
1.086E+02   7.234E+01  9.022E-01 
1.100E+02   7.291E+01  8.954E-01 
1.114E+02   7.347E+01  8.886E-01 
1.129E+02   7.403E+01  8.818E-01 
1.143E+02   7.460E+01  8.751E-01 
1.158E+02   7.517E+01  8.684E-01 
1.173E+02   7.574E+01  8.618E-01 
1.188E+02   7.630E+01  8.552E-01 
1.204E+02   7.688E+01  8.486E-01 
1.219E+02   7.745E+01  8.420E-01 
1.235E+02   7.802E+01  8.355E-01 
1.251E+02   7.859E+01  8.290E-01 
1.268E+02   7.916E+01  8.226E-01 
1.284E+02   7.974E+01  8.162E-01 
1.301E+02   8.031E+01  8.098E-01 
1.318E+02   8.088E+01  8.035E-01 
1.335E+02   8.146E+01  7.971E-01 
1.352E+02   8.203E+01  7.909E-01 
1.370E+02   8.260E+01  7.846E-01 
1.388E+02   8.318E+01  7.784E-01 
1.406E+02   8.375E+01  7.722E-01 
1.424E+02   8.432E+01  7.661E-01 
1.442E+02   8.489E+01  7.600E-01 
1.461E+02   8.547E+01  7.539E-01 
1.480E+02   8.604E+01  7.479E-01 
1.499E+02   8.660E+01  7.419E-01 
1.519E+02   8.717E+01  7.359E-01 
1.539E+02   8.774E+01  7.300E-01 
1.559E+02   8.830E+01  7.241E-01 
1.579E+02   8.887E+01  7.182E-01 
1.599E+02   8.943E+01  7.124E-01 
1.620E+02   8.999E+01  7.066E-01 
1.641E+02   9.055E+01  7.009E-01 
1.662E+02   9.111E+01  6.951E-01 
1.684E+02   9.166E+01  6.895E-01 
1.706E+02   9.222E+01  6.838E-01 
1.728E+02   9.277E+01  6.782E-01 
1.751E+02   9.332E+01  6.726E-01 
1.773E+02   9.386E+01  6.670E-01 
1.796E+02   9.441E+01  6.615E-01 
1.820E+02   9.495E+01  6.560E-01 
1.843E+02   9.549E+01  6.506E-01 
1.867E+02   9.602E+01  6.452E-01 
1.892E+02   9.656E+01  6.398E-01 
1.916E+02   9.709E+01  6.345E-01 
1.941E+02   9.762E+01  6.292E-01 
1.966E+02   9.814E+01  6.239E-01 
1.992E+02   9.866E+01  6.186E-01 
2.018E+02   9.918E+01  6.134E-01 
2.044E+02   9.970E+01  6.083E-01 
2.071E+02   1.002E+02  6.031E-01 
2.097E+02   1.007E+02  5.980E-01 
2.125E+02   1.012E+02  5.929E-01 
2.152E+02   1.017E+02  5.879E-01 
2.180E+02   1.022E+02  5.829E-01 
2.209E+02   1.027E+02  5.779E-01 
2.237E+02   1.032E+02  5.730E-01 
2.266E+02   1.037E+02  5.681E-01 
2.296E+02   1.042E+02  5.632E-01 
2.326E+02   1.047E+02  5.584E-01 
2.356E+02   1.051E+02  5.536E-01 
2.387E+02   1.056E+02  5.488E-01 
2.418E+02   1.061E+02  5.440E-01 
2.449E+02   1.065E+02  5.393E-01 
2.481E+02   1.070E+02  5.347E-01 
2.513E+02   1.075E+02  5.300E-01 
2.546E+02   1.079E+02  5.254E-01 
2.579E+02   1.084E+02  5.208E-01 
2.612E+02   1.088E+02  5.163E-01 
2.646E+02   1.092E+02  5.118E-01 
2.681E+02   1.097E+02  5.073E-01 
2.716E+02   1.101E+02  5.028E-01 
2.751E+02   1.105E+02  4.984E-01 
2.787E+02   1.110E+02  4.940E-01 
2.823E+02   1.114E+02  4.897E-01 
2.859E+02   1.118E+02  4.854E-01 
2.897E+02   1.122E+02  4.811E-01 
2.934E+02   1.126E+02  4.768E-01 
2.972E+02   1.130E+02  4.726E-01 
3.011E+02   1.134E+02  4.684E-01 
3.050E+02   1.138E+02  4.642E-01 
3.090E+02   1.142E+02  4.601E-01 
3.130E+02   1.146E+02  4.560E-01 
3.171E+02   1.150E+02  4.519E-01 
3.212E+02   1.153E+02  4.479E-01 
3.254E+02   1.157E+02  4.438E-01 
3.296E+02   1.161E+02  4.399E-01 
3.339E+02   1.164E+02  4.359E-01 
3.382E+02   1.168E+02  4.320E-01 
3.426E+02   1.171E+02  4.281E-01 
3.471E+02   1.175E+02  4.242E-01 
3.516E+02   1.178E+02  4.204E-01 
3.561E+02   1.182E+02  4.166E-01 
3.608E+02   1.185E+02  4.128E-01 
3.655E+02   1.188E+02  4.120E-01 
3.702E+02   1.191E+02  4.083E-01 
3.750E+02   1.195E+02  4.046E-01 
3.799E+02   1.198E+02  4.009E-01 
3.848E+02   1.201E+02  3.972E-01 
3.898E+02   1.204E+02  3.936E-01 
3.949E+02   1.207E+02  3.900E-01 
4.000E+02   1.209E+02  3.864E-01 
4.052E+02   1.212E+02  3.828E-01 
4.105E+02   1.215E+02  3.793E-01 
4.158E+02   1.218E+02  3.758E-01 
4.212E+02   1.220E+02  3.723E-01 
4.267E+02   1.223E+02  3.689E-01 
4.323E+02   1.225E+02  3.655E-01 
4.379E+02   1.228E+02  3.621E-01 
4.436E+02   1.230E+02  3.587E-01 
4.493E+02   1.233E+02  3.554E-01 
4.552E+02   1.235E+02  3.521E-01 
4.611E+02   1.237E+02  3.488E-01 
4.671E+02   1.239E+02  3.456E-01 
4.731E+02   1.241E+02  3.423E-01 
4.793E+02   1.243E+02  3.391E-01 
4.855E+02   1.245E+02  3.359E-01 
4.918E+02   1.247E+02  3.328E-01 
4.982E+02   1.249E+02  3.297E-01 
5.047E+02   1.251E+02  3.266E-01 
5.113E+02   1.253E+02  3.235E-01 
5.179E+02   1.254E+02  3.204E-01 
5.246E+02   1.256E+02  3.174E-01 
5.315E+02   1.257E+02  3.144E-01 
5.384E+02   1.259E+02  3.114E-01 
5.454E+02   1.260E+02  3.085E-01 
5.524E+02   1.261E+02  3.056E-01 
5.596E+02   1.262E+02  3.027E-01 
5.669E+02   1.263E+02  2.998E-01 
5.743E+02   1.264E+02  2.969E-01 
5.817E+02   1.265E+02  2.941E-01 
5.893E+02   1.266E+02  2.913E-01 
5.969E+02   1.267E+02  2.885E-01 
6.047E+02   1.268E+02  2.858E-01 
6.126E+02   1.268E+02  2.830E-01 
6.205E+02   1.269E+02  2.803E-01 
6.286E+02   1.270E+02  2.776E-01 
6.368E+02   1.270E+02  2.749E-01 
6.450E+02   1.270E+02  2.723E-01 
6.534E+02   1.271E+02  2.697E-01 
6.619E+02   1.271E+02  2.671E-01 
6.705E+02   1.271E+02  2.645E-01 
6.792E+02   1.271E+02  2.620E-01 
6.881E+02   1.271E+02  2.594E-01 
6.970E+02   1.271E+02  2.569E-01 
7.061E+02   1.270E+02  2.544E-01 
7.152E+02   1.270E+02  2.520E-01 
7.245E+02   1.270E+02  2.495E-01 
7.339E+02   1.269E+02  2.471E-01 
7.435E+02   1.269E+02  2.447E-01 
7.531E+02   1.268E+02  2.423E-01 
7.629E+02   1.268E+02  2.399E-01 
7.728E+02   1.267E+02  2.376E-01 
7.829E+02   1.266E+02  2.353E-01 
7.931E+02   1.265E+02  2.330E-01 
8.034E+02   1.264E+02  2.307E-01 
8.138E+02   1.263E+02  2.284E-01 
8.244E+02   1.262E+02  2.262E-01 
8.351E+02   1.260E+02  2.240E-01 
8.460E+02   1.259E+02  2.218E-01 
8.570E+02   1.258E+02  2.196E-01 
8.681E+02   1.256E+02  2.174E-01 
8.794E+02   1.255E+02  2.153E-01 
8.908E+02   1.253E+02  2.132E-01 
9.024E+02   1.251E+02  2.111E-01 
9.141E+02   1.249E+02  2.090E-01 
9.260E+02   1.248E+02  2.069E-01 
9.380E+02   1.246E+02  2.049E-01 
9.502E+02   1.244E+02  2.028E-01 
9.626E+02   1.241E+02  2.008E-01 
9.751E+02   1.239E+02  1.988E-01 
9.877E+02   1.237E+02  1.969E-01 
1.001E+03   1.235E+02  1.949E-01 
1.014E+03   1.232E+02  1.930E-01 
1.027E+03   1.230E+02  1.910E-01 
1.040E+03   1.227E+02  1.891E-01 
1.054E+03   1.225E+02  1.873E-01 
1.067E+03   1.222E+02  1.854E-01 
1.081E+03   1.219E+02  1.835E-01 
1.095E+03   1.216E+02  1.817E-01 
1.109E+03   1.214E+02  1.799E-01 
1.124E+03   1.211E+02  1.781E-01 
1.138E+03   1.208E+02  1.763E-01 
1.153E+03   1.204E+02  1.745E-01 
1.168E+03   1.201E+02  1.728E-01 
1.183E+03   1.198E+02  1.710E-01 
1.199E+03   1.195E+02  1.693E-01 
1.214E+03   1.191E+02  1.676E-01 
1.230E+03   1.188E+02  1.659E-01 
1.246E+03   1.185E+02  1.643E-01 
1.262E+03   1.181E+02  1.626E-01 
1.279E+03   1.177E+02  1.610E-01 
1.295E+03   1.174E+02  1.593E-01 
1.312E+03   1.170E+02  1.577E-01 
1.329E+03   1.166E+02  1.561E-01 
1.347E+03   1.163E+02  1.546E-01 
1.364E+03   1.159E+02  1.530E-01 
1.382E+03   1.155E+02  1.514E-01 
1.400E+03   1.151E+02  1.499E-01 
1.418E+03   1.147E+02  1.484E-01 
1.436E+03   1.143E+02  1.469E-01 
1.455E+03   1.139E+02  1.454E-01 
1.474E+03   1.134E+02  1.439E-01 
1.493E+03   1.130E+02  1.424E-01 
1.513E+03   1.126E+02  1.410E-01 
1.532E+03   1.122E+02  1.396E-01 
1.552E+03   1.117E+02  1.381E-01 
1.572E+03   1.113E+02  1.367E-01 
1.593E+03   1.109E+02  1.353E-01 
1.613E+03   1.104E+02  1.339E-01 
1.634E+03   1.100E+02  1.326E-01 
1.656E+03   1.095E+02  1.312E-01 
1.677E+03   1.090E+02  1.299E-01 
1.699E+03   1.086E+02  1.285E-01 
1.721E+03   1.081E+02  1.272E-01 
1.743E+03   1.077E+02  1.259E-01 
1.766E+03   1.072E+02  1.246E-01 
1.789E+03   1.067E+02  1.233E-01 
1.812E+03   1.062E+02  1.221E-01 
1.836E+03   1.057E+02  1.208E-01 
1.860E+03   1.053E+02  1.196E-01 
