Ion = Helium      . Mass = 4.0026
Tgt = Be (Solid). Density = 1.848 g/cm3
Stopping Units =  eV/(1E15 atoms/cm2)
Energy(keV)  S(Elec)    S(Nuc)
1.000E+00   1.977E+00  2.804E+00 
1.013E+00   1.990E+00  2.794E+00 
1.026E+00   2.003E+00  2.785E+00 
1.039E+00   2.016E+00  2.776E+00 
1.053E+00   2.029E+00  2.766E+00 
1.067E+00   2.042E+00  2.757E+00 
1.081E+00   2.055E+00  2.747E+00 
1.095E+00   2.069E+00  2.738E+00 
1.109E+00   2.082E+00  2.728E+00 
1.123E+00   2.096E+00  2.719E+00 
1.138E+00   2.109E+00  2.709E+00 
1.153E+00   2.123E+00  2.699E+00 
1.168E+00   2.137E+00  2.689E+00 
1.183E+00   2.150E+00  2.679E+00 
1.198E+00   2.164E+00  2.669E+00 
1.214E+00   2.178E+00  2.659E+00 
1.229E+00   2.193E+00  2.649E+00 
1.245E+00   2.207E+00  2.639E+00 
1.262E+00   2.221E+00  2.629E+00 
1.278E+00   2.235E+00  2.619E+00 
1.295E+00   2.250E+00  2.608E+00 
1.311E+00   2.264E+00  2.598E+00 
1.329E+00   2.279E+00  2.588E+00 
1.346E+00   2.294E+00  2.577E+00 
1.363E+00   2.309E+00  2.567E+00 
1.381E+00   2.324E+00  2.556E+00 
1.399E+00   2.339E+00  2.546E+00 
1.417E+00   2.354E+00  2.535E+00 
1.436E+00   2.369E+00  2.525E+00 
1.454E+00   2.384E+00  2.514E+00 
1.473E+00   2.400E+00  2.503E+00 
1.492E+00   2.415E+00  2.492E+00 
1.512E+00   2.431E+00  2.482E+00 
1.531E+00   2.447E+00  2.471E+00 
1.551E+00   2.463E+00  2.460E+00 
1.571E+00   2.479E+00  2.449E+00 
1.592E+00   2.495E+00  2.438E+00 
1.612E+00   2.511E+00  2.427E+00 
1.633E+00   2.527E+00  2.416E+00 
1.655E+00   2.544E+00  2.405E+00 
1.676E+00   2.560E+00  2.394E+00 
1.698E+00   2.577E+00  2.383E+00 
1.720E+00   2.593E+00  2.372E+00 
1.742E+00   2.610E+00  2.361E+00 
1.765E+00   2.627E+00  2.350E+00 
1.788E+00   2.644E+00  2.338E+00 
1.811E+00   2.661E+00  2.327E+00 
1.835E+00   2.678E+00  2.316E+00 
1.859E+00   2.696E+00  2.305E+00 
1.883E+00   2.713E+00  2.294E+00 
1.907E+00   2.731E+00  2.282E+00 
1.932E+00   2.748E+00  2.271E+00 
1.957E+00   2.766E+00  2.260E+00 
1.983E+00   2.784E+00  2.248E+00 
2.008E+00   2.802E+00  2.237E+00 
2.034E+00   2.820E+00  2.226E+00 
2.061E+00   2.839E+00  2.214E+00 
2.088E+00   2.857E+00  2.203E+00 
2.115E+00   2.875E+00  2.192E+00 
2.142E+00   2.894E+00  2.180E+00 
2.170E+00   2.913E+00  2.169E+00 
2.198E+00   2.932E+00  2.157E+00 
2.227E+00   2.951E+00  2.146E+00 
2.256E+00   2.970E+00  2.135E+00 
2.285E+00   2.989E+00  2.123E+00 
2.315E+00   3.008E+00  2.112E+00 
2.345E+00   3.028E+00  2.100E+00 
2.375E+00   3.048E+00  2.089E+00 
2.406E+00   3.067E+00  2.077E+00 
2.438E+00   3.087E+00  2.066E+00 
2.469E+00   3.107E+00  2.055E+00 
2.501E+00   3.127E+00  2.043E+00 
2.534E+00   3.147E+00  2.032E+00 
2.567E+00   3.168E+00  2.020E+00 
2.600E+00   3.188E+00  2.009E+00 
2.634E+00   3.209E+00  1.997E+00 
2.668E+00   3.230E+00  1.986E+00 
2.703E+00   3.251E+00  1.975E+00 
2.738E+00   3.272E+00  1.963E+00 
2.773E+00   3.293E+00  1.952E+00 
2.810E+00   3.314E+00  1.941E+00 
2.846E+00   3.336E+00  1.929E+00 
2.883E+00   3.357E+00  1.918E+00 
2.921E+00   3.379E+00  1.906E+00 
2.958E+00   3.401E+00  1.895E+00 
2.997E+00   3.423E+00  1.884E+00 
3.036E+00   3.445E+00  1.873E+00 
3.075E+00   3.468E+00  1.861E+00 
3.115E+00   3.490E+00  1.850E+00 
3.156E+00   3.513E+00  1.839E+00 
3.197E+00   3.535E+00  1.828E+00 
3.238E+00   3.558E+00  1.816E+00 
3.280E+00   3.581E+00  1.805E+00 
3.323E+00   3.605E+00  1.794E+00 
3.366E+00   3.628E+00  1.783E+00 
3.410E+00   3.651E+00  1.772E+00 
3.454E+00   3.675E+00  1.761E+00 
3.499E+00   3.699E+00  1.749E+00 
3.545E+00   3.723E+00  1.738E+00 
3.591E+00   3.747E+00  1.727E+00 
3.637E+00   3.771E+00  1.716E+00 
3.685E+00   3.796E+00  1.705E+00 
3.733E+00   3.820E+00  1.694E+00 
3.781E+00   3.845E+00  1.683E+00 
3.830E+00   3.870E+00  1.673E+00 
3.880E+00   3.895E+00  1.662E+00 
3.930E+00   3.920E+00  1.651E+00 
3.982E+00   3.946E+00  1.640E+00 
4.033E+00   3.971E+00  1.629E+00 
4.086E+00   3.997E+00  1.618E+00 
4.139E+00   4.023E+00  1.608E+00 
4.193E+00   4.049E+00  1.597E+00 
4.247E+00   4.075E+00  1.586E+00 
4.302E+00   4.101E+00  1.576E+00 
4.358E+00   4.128E+00  1.565E+00 
4.415E+00   4.155E+00  1.554E+00 
4.472E+00   4.182E+00  1.544E+00 
4.530E+00   4.209E+00  1.533E+00 
4.589E+00   4.236E+00  1.523E+00 
4.649E+00   4.263E+00  1.512E+00 
4.709E+00   4.291E+00  1.502E+00 
4.770E+00   4.319E+00  1.492E+00 
4.832E+00   4.347E+00  1.481E+00 
4.895E+00   4.375E+00  1.471E+00 
4.959E+00   4.403E+00  1.461E+00 
5.023E+00   4.432E+00  1.451E+00 
5.089E+00   4.460E+00  1.440E+00 
5.155E+00   4.489E+00  1.430E+00 
5.222E+00   4.518E+00  1.420E+00 
5.290E+00   4.548E+00  1.410E+00 
5.358E+00   4.577E+00  1.400E+00 
5.428E+00   4.607E+00  1.390E+00 
5.499E+00   4.637E+00  1.380E+00 
5.570E+00   4.667E+00  1.370E+00 
5.642E+00   4.697E+00  1.360E+00 
5.716E+00   4.727E+00  1.350E+00 
5.790E+00   4.758E+00  1.341E+00 
5.865E+00   4.789E+00  1.331E+00 
5.942E+00   4.820E+00  1.321E+00 
6.019E+00   4.851E+00  1.311E+00 
6.097E+00   4.882E+00  1.302E+00 
6.176E+00   4.914E+00  1.292E+00 
6.256E+00   4.946E+00  1.283E+00 
6.338E+00   4.978E+00  1.273E+00 
6.420E+00   5.010E+00  1.264E+00 
6.504E+00   5.043E+00  1.254E+00 
6.588E+00   5.075E+00  1.245E+00 
6.674E+00   5.108E+00  1.236E+00 
6.760E+00   5.141E+00  1.226E+00 
6.848E+00   5.175E+00  1.217E+00 
6.937E+00   5.208E+00  1.208E+00 
7.027E+00   5.242E+00  1.199E+00 
7.119E+00   5.276E+00  1.190E+00 
7.211E+00   5.310E+00  1.181E+00 
7.305E+00   5.344E+00  1.172E+00 
7.400E+00   5.379E+00  1.163E+00 
7.496E+00   5.414E+00  1.154E+00 
7.594E+00   5.449E+00  1.145E+00 
7.692E+00   5.484E+00  1.136E+00 
7.792E+00   5.520E+00  1.127E+00 
7.894E+00   5.555E+00  1.118E+00 
7.996E+00   5.591E+00  1.110E+00 
8.100E+00   5.629E+00  1.101E+00 
8.205E+00   5.666E+00  1.092E+00 
8.312E+00   5.704E+00  1.084E+00 
8.420E+00   5.742E+00  1.075E+00 
8.529E+00   5.781E+00  1.067E+00 
8.640E+00   5.819E+00  1.058E+00 
8.753E+00   5.858E+00  1.050E+00 
8.866E+00   5.897E+00  1.042E+00 
8.982E+00   5.937E+00  1.033E+00 
9.098E+00   5.976E+00  1.025E+00 
9.217E+00   6.016E+00  1.017E+00 
9.336E+00   6.056E+00  1.009E+00 
9.458E+00   6.097E+00  1.001E+00 
9.581E+00   6.137E+00  9.927E-01 
9.705E+00   6.178E+00  9.847E-01 
9.831E+00   6.219E+00  9.768E-01 
9.959E+00   6.260E+00  9.689E-01 
1.009E+01   6.302E+00  9.610E-01 
1.022E+01   6.344E+00  9.532E-01 
1.035E+01   6.386E+00  9.454E-01 
1.049E+01   6.428E+00  9.377E-01 
1.062E+01   6.470E+00  9.300E-01 
1.076E+01   6.513E+00  9.224E-01 
1.090E+01   6.556E+00  9.148E-01 
1.104E+01   6.600E+00  9.073E-01 
1.119E+01   6.643E+00  8.998E-01 
1.133E+01   6.687E+00  8.923E-01 
1.148E+01   6.731E+00  8.849E-01 
1.163E+01   6.776E+00  8.776E-01 
1.178E+01   6.820E+00  8.703E-01 
1.193E+01   6.865E+00  8.630E-01 
1.209E+01   6.910E+00  8.558E-01 
1.224E+01   6.956E+00  8.486E-01 
1.240E+01   7.001E+00  8.415E-01 
1.256E+01   7.047E+00  8.344E-01 
1.273E+01   7.093E+00  8.274E-01 
1.289E+01   7.140E+00  8.204E-01 
1.306E+01   7.187E+00  8.135E-01 
1.323E+01   7.234E+00  8.066E-01 
1.340E+01   7.281E+00  7.997E-01 
1.358E+01   7.329E+00  7.929E-01 
1.375E+01   7.376E+00  7.862E-01 
1.393E+01   7.425E+00  7.795E-01 
1.411E+01   7.473E+00  7.728E-01 
1.430E+01   7.522E+00  7.662E-01 
1.448E+01   7.571E+00  7.596E-01 
1.467E+01   7.620E+00  7.531E-01 
1.486E+01   7.670E+00  7.466E-01 
1.505E+01   7.719E+00  7.401E-01 
1.525E+01   7.770E+00  7.337E-01 
1.545E+01   7.820E+00  7.274E-01 
1.565E+01   7.871E+00  7.211E-01 
1.585E+01   7.922E+00  7.148E-01 
1.606E+01   7.973E+00  7.086E-01 
1.627E+01   8.025E+00  7.024E-01 
1.648E+01   8.077E+00  6.963E-01 
1.669E+01   8.129E+00  6.902E-01 
1.691E+01   8.181E+00  6.841E-01 
1.713E+01   8.234E+00  6.781E-01 
1.735E+01   8.287E+00  6.722E-01 
1.758E+01   8.341E+00  6.663E-01 
1.781E+01   8.395E+00  6.604E-01 
1.804E+01   8.449E+00  6.546E-01 
1.827E+01   8.503E+00  6.488E-01 
1.851E+01   8.558E+00  6.430E-01 
1.875E+01   8.613E+00  6.373E-01 
1.899E+01   8.668E+00  6.316E-01 
1.924E+01   8.724E+00  6.260E-01 
1.949E+01   8.780E+00  6.204E-01 
1.974E+01   8.836E+00  6.149E-01 
2.000E+01   8.893E+00  6.094E-01 
2.026E+01   8.950E+00  6.039E-01 
2.052E+01   9.007E+00  5.985E-01 
2.079E+01   9.065E+00  5.931E-01 
2.106E+01   9.123E+00  5.878E-01 
2.133E+01   9.181E+00  5.825E-01 
2.161E+01   9.240E+00  5.773E-01 
2.189E+01   9.299E+00  5.720E-01 
2.218E+01   9.359E+00  5.669E-01 
2.247E+01   9.418E+00  5.617E-01 
2.276E+01   9.478E+00  5.566E-01 
2.305E+01   9.539E+00  5.516E-01 
2.335E+01   9.600E+00  5.466E-01 
2.366E+01   9.661E+00  5.416E-01 
2.396E+01   9.722E+00  5.366E-01 
2.428E+01   9.784E+00  5.317E-01 
2.459E+01   9.846E+00  5.269E-01 
2.491E+01   9.909E+00  5.220E-01 
2.523E+01   9.972E+00  5.172E-01 
2.556E+01   1.004E+01  5.125E-01 
2.589E+01   1.010E+01  5.078E-01 
2.623E+01   1.016E+01  5.031E-01 
2.657E+01   1.023E+01  4.985E-01 
2.692E+01   1.029E+01  4.939E-01 
2.727E+01   1.036E+01  4.617E-01 
2.762E+01   1.042E+01  4.575E-01 
2.798E+01   1.049E+01  4.534E-01 
2.834E+01   1.056E+01  4.492E-01 
2.871E+01   1.062E+01  4.451E-01 
2.909E+01   1.069E+01  4.411E-01 
2.946E+01   1.076E+01  4.370E-01 
2.985E+01   1.082E+01  4.330E-01 
3.023E+01   1.089E+01  4.290E-01 
3.063E+01   1.096E+01  4.251E-01 
3.103E+01   1.103E+01  4.212E-01 
3.143E+01   1.110E+01  4.173E-01 
3.184E+01   1.117E+01  4.134E-01 
3.225E+01   1.124E+01  4.096E-01 
3.267E+01   1.131E+01  4.058E-01 
3.309E+01   1.138E+01  4.021E-01 
3.352E+01   1.145E+01  3.983E-01 
3.396E+01   1.152E+01  3.946E-01 
3.440E+01   1.160E+01  3.909E-01 
3.485E+01   1.167E+01  3.873E-01 
3.530E+01   1.174E+01  3.837E-01 
3.576E+01   1.181E+01  3.801E-01 
3.623E+01   1.189E+01  3.765E-01 
3.670E+01   1.196E+01  3.730E-01 
3.717E+01   1.204E+01  3.695E-01 
3.766E+01   1.211E+01  3.660E-01 
3.815E+01   1.219E+01  3.626E-01 
3.864E+01   1.226E+01  3.592E-01 
3.914E+01   1.234E+01  3.558E-01 
3.965E+01   1.241E+01  3.524E-01 
4.017E+01   1.249E+01  3.491E-01 
4.069E+01   1.257E+01  3.458E-01 
4.122E+01   1.264E+01  3.425E-01 
4.175E+01   1.272E+01  3.393E-01 
4.230E+01   1.280E+01  3.360E-01 
4.285E+01   1.288E+01  3.328E-01 
4.340E+01   1.296E+01  3.297E-01 
4.397E+01   1.304E+01  3.265E-01 
4.454E+01   1.312E+01  3.234E-01 
4.512E+01   1.320E+01  3.203E-01 
4.570E+01   1.328E+01  3.172E-01 
4.630E+01   1.336E+01  3.142E-01 
4.690E+01   1.344E+01  3.112E-01 
4.751E+01   1.352E+01  3.082E-01 
4.813E+01   1.360E+01  3.052E-01 
4.875E+01   1.369E+01  3.023E-01 
4.939E+01   1.377E+01  2.994E-01 
5.003E+01   1.385E+01  2.965E-01 
5.068E+01   1.394E+01  2.936E-01 
5.134E+01   1.402E+01  2.908E-01 
5.200E+01   1.410E+01  2.880E-01 
5.268E+01   1.419E+01  2.852E-01 
5.336E+01   1.427E+01  2.824E-01 
5.406E+01   1.436E+01  2.797E-01 
5.476E+01   1.444E+01  2.770E-01 
5.547E+01   1.453E+01  2.743E-01 
5.619E+01   1.462E+01  2.716E-01 
5.692E+01   1.470E+01  2.690E-01 
5.766E+01   1.479E+01  2.664E-01 
5.841E+01   1.488E+01  2.638E-01 
5.917E+01   1.496E+01  2.612E-01 
5.994E+01   1.505E+01  2.586E-01 
6.072E+01   1.514E+01  2.561E-01 
6.151E+01   1.523E+01  2.536E-01 
6.231E+01   1.532E+01  2.511E-01 
6.312E+01   1.541E+01  2.486E-01 
6.394E+01   1.550E+01  2.462E-01 
6.477E+01   1.559E+01  2.438E-01 
6.561E+01   1.568E+01  2.414E-01 
6.646E+01   1.577E+01  2.390E-01 
6.733E+01   1.586E+01  2.366E-01 
6.820E+01   1.595E+01  2.343E-01 
6.909E+01   1.604E+01  2.320E-01 
6.999E+01   1.613E+01  2.297E-01 
7.090E+01   1.623E+01  2.274E-01 
7.182E+01   1.632E+01  2.252E-01 
7.275E+01   1.641E+01  2.229E-01 
7.370E+01   1.650E+01  2.207E-01 
7.465E+01   1.660E+01  2.185E-01 
7.562E+01   1.669E+01  2.163E-01 
7.661E+01   1.678E+01  2.142E-01 
7.760E+01   1.688E+01  2.121E-01 
7.861E+01   1.697E+01  2.099E-01 
7.963E+01   1.707E+01  2.079E-01 
8.067E+01   1.716E+01  2.058E-01 
8.172E+01   1.726E+01  2.037E-01 
8.278E+01   1.735E+01  2.017E-01 
8.385E+01   1.745E+01  1.997E-01 
8.494E+01   1.754E+01  1.977E-01 
8.605E+01   1.764E+01  1.957E-01 
8.717E+01   1.773E+01  1.937E-01 
8.830E+01   1.783E+01  1.918E-01 
8.945E+01   1.792E+01  1.899E-01 
9.061E+01   1.802E+01  1.879E-01 
9.179E+01   1.812E+01  1.861E-01 
9.298E+01   1.821E+01  1.842E-01 
9.419E+01   1.831E+01  1.823E-01 
9.541E+01   1.841E+01  1.805E-01 
9.665E+01   1.850E+01  1.787E-01 
9.791E+01   1.860E+01  1.769E-01 
9.918E+01   1.870E+01  1.751E-01 
1.005E+02   1.880E+01  1.733E-01 
1.018E+02   1.889E+01  1.715E-01 
1.031E+02   1.899E+01  1.698E-01 
1.044E+02   1.909E+01  1.681E-01 
1.058E+02   1.919E+01  1.664E-01 
1.072E+02   1.928E+01  1.647E-01 
1.086E+02   1.938E+01  1.630E-01 
1.100E+02   1.948E+01  1.614E-01 
1.114E+02   1.958E+01  1.597E-01 
1.129E+02   1.967E+01  1.581E-01 
1.143E+02   1.977E+01  1.565E-01 
1.158E+02   1.987E+01  1.549E-01 
1.173E+02   1.997E+01  1.533E-01 
1.188E+02   2.007E+01  1.517E-01 
1.204E+02   2.016E+01  1.502E-01 
1.219E+02   2.026E+01  1.487E-01 
1.235E+02   2.036E+01  1.471E-01 
1.251E+02   2.046E+01  1.456E-01 
1.268E+02   2.055E+01  1.441E-01 
1.284E+02   2.065E+01  1.427E-01 
1.301E+02   2.075E+01  1.412E-01 
1.318E+02   2.084E+01  1.397E-01 
1.335E+02   2.094E+01  1.383E-01 
1.352E+02   2.104E+01  1.369E-01 
1.370E+02   2.114E+01  1.355E-01 
1.388E+02   2.123E+01  1.341E-01 
1.406E+02   2.133E+01  1.327E-01 
1.424E+02   2.142E+01  1.313E-01 
1.442E+02   2.152E+01  1.300E-01 
1.461E+02   2.161E+01  1.286E-01 
1.480E+02   2.171E+01  1.273E-01 
1.499E+02   2.180E+01  1.260E-01 
1.519E+02   2.190E+01  1.247E-01 
1.539E+02   2.199E+01  1.234E-01 
1.559E+02   2.209E+01  1.221E-01 
1.579E+02   2.218E+01  1.209E-01 
1.599E+02   2.227E+01  1.196E-01 
1.620E+02   2.237E+01  1.184E-01 
1.641E+02   2.246E+01  1.171E-01 
1.662E+02   2.255E+01  1.159E-01 
1.684E+02   2.264E+01  1.147E-01 
1.706E+02   2.274E+01  1.135E-01 
1.728E+02   2.283E+01  1.124E-01 
1.751E+02   2.292E+01  1.112E-01 
1.773E+02   2.301E+01  1.100E-01 
1.796E+02   2.310E+01  1.089E-01 
1.820E+02   2.319E+01  1.078E-01 
1.843E+02   2.327E+01  1.066E-01 
1.867E+02   2.336E+01  1.055E-01 
1.892E+02   2.345E+01  1.044E-01 
1.916E+02   2.354E+01  1.033E-01 
1.941E+02   2.362E+01  1.022E-01 
1.966E+02   2.371E+01  1.012E-01 
1.992E+02   2.379E+01  1.001E-01 
2.018E+02   2.388E+01  9.907E-02 
2.044E+02   2.396E+01  9.803E-02 
2.071E+02   2.404E+01  9.700E-02 
2.097E+02   2.412E+01  9.599E-02 
2.125E+02   2.421E+01  9.498E-02 
2.152E+02   2.429E+01  9.398E-02 
2.180E+02   2.437E+01  9.300E-02 
2.209E+02   2.445E+01  9.202E-02 
2.237E+02   2.452E+01  9.105E-02 
2.266E+02   2.460E+01  9.009E-02 
2.296E+02   2.468E+01  8.915E-02 
2.326E+02   2.475E+01  8.821E-02 
2.356E+02   2.483E+01  8.728E-02 
2.387E+02   2.490E+01  8.636E-02 
2.418E+02   2.498E+01  8.545E-02 
2.449E+02   2.505E+01  8.455E-02 
2.481E+02   2.512E+01  8.365E-02 
2.513E+02   2.519E+01  8.277E-02 
2.546E+02   2.526E+01  8.190E-02 
2.579E+02   2.533E+01  8.103E-02 
2.612E+02   2.539E+01  8.017E-02 
2.646E+02   2.546E+01  7.933E-02 
2.681E+02   2.553E+01  7.849E-02 
2.716E+02   2.559E+01  7.766E-02 
2.751E+02   2.565E+01  7.683E-02 
2.787E+02   2.571E+01  7.602E-02 
2.823E+02   2.577E+01  7.521E-02 
2.859E+02   2.583E+01  7.441E-02 
2.897E+02   2.589E+01  7.362E-02 
2.934E+02   2.595E+01  7.284E-02 
2.972E+02   2.601E+01  7.207E-02 
3.011E+02   2.606E+01  7.130E-02 
3.050E+02   2.611E+01  7.054E-02 
3.090E+02   2.617E+01  6.979E-02 
3.130E+02   2.622E+01  6.905E-02 
3.171E+02   2.627E+01  6.832E-02 
3.212E+02   2.632E+01  6.759E-02 
3.254E+02   2.636E+01  6.687E-02 
3.296E+02   2.641E+01  6.615E-02 
3.339E+02   2.645E+01  6.545E-02 
3.382E+02   2.650E+01  6.475E-02 
3.426E+02   2.654E+01  6.406E-02 
3.471E+02   2.658E+01  6.337E-02 
3.516E+02   2.662E+01  6.270E-02 
3.561E+02   2.665E+01  6.203E-02 
3.608E+02   2.669E+01  6.136E-02 
3.655E+02   2.672E+01  6.071E-02 
3.702E+02   2.676E+01  6.006E-02 
3.750E+02   2.679E+01  5.941E-02 
3.799E+02   2.682E+01  5.878E-02 
3.848E+02   2.685E+01  5.815E-02 
3.898E+02   2.687E+01  5.752E-02 
3.949E+02   2.690E+01  5.691E-02 
4.000E+02   2.692E+01  5.630E-02 
4.052E+02   2.694E+01  5.569E-02 
4.105E+02   2.697E+01  5.509E-02 
4.158E+02   2.698E+01  5.450E-02 
4.212E+02   2.700E+01  5.391E-02 
4.267E+02   2.702E+01  5.333E-02 
4.323E+02   2.703E+01  5.276E-02 
4.379E+02   2.705E+01  5.219E-02 
4.436E+02   2.706E+01  5.163E-02 
4.493E+02   2.707E+01  5.107E-02 
4.552E+02   2.707E+01  5.052E-02 
4.611E+02   2.708E+01  4.998E-02 
4.671E+02   2.708E+01  4.944E-02 
4.731E+02   2.709E+01  4.891E-02 
4.793E+02   2.709E+01  4.838E-02 
4.855E+02   2.709E+01  4.786E-02 
4.918E+02   2.709E+01  4.734E-02 
4.982E+02   2.708E+01  4.683E-02 
5.047E+02   2.708E+01  4.632E-02 
5.113E+02   2.707E+01  4.582E-02 
5.179E+02   2.706E+01  4.533E-02 
5.246E+02   2.705E+01  4.484E-02 
5.315E+02   2.704E+01  4.435E-02 
5.384E+02   2.703E+01  4.387E-02 
5.454E+02   2.701E+01  4.339E-02 
5.524E+02   2.699E+01  4.292E-02 
5.596E+02   2.697E+01  4.246E-02 
5.669E+02   2.695E+01  4.200E-02 
5.743E+02   2.693E+01  4.154E-02 
5.817E+02   2.691E+01  4.109E-02 
5.893E+02   2.688E+01  4.065E-02 
5.969E+02   2.686E+01  4.020E-02 
6.047E+02   2.683E+01  3.977E-02 
6.126E+02   2.680E+01  3.933E-02 
6.205E+02   2.676E+01  3.891E-02 
6.286E+02   2.673E+01  3.848E-02 
6.368E+02   2.669E+01  3.806E-02 
6.450E+02   2.666E+01  3.765E-02 
6.534E+02   2.662E+01  3.724E-02 
6.619E+02   2.658E+01  3.683E-02 
6.705E+02   2.654E+01  3.643E-02 
6.792E+02   2.649E+01  3.604E-02 
6.881E+02   2.645E+01  3.564E-02 
6.970E+02   2.640E+01  3.525E-02 
7.061E+02   2.635E+01  3.487E-02 
7.152E+02   2.630E+01  3.449E-02 
7.245E+02   2.625E+01  3.411E-02 
7.339E+02   2.620E+01  3.374E-02 
7.435E+02   2.614E+01  3.337E-02 
7.531E+02   2.609E+01  3.301E-02 
7.629E+02   2.603E+01  3.265E-02 
7.728E+02   2.597E+01  3.229E-02 
7.829E+02   2.591E+01  3.194E-02 
7.931E+02   2.585E+01  3.159E-02 
8.034E+02   2.579E+01  3.124E-02 
8.138E+02   2.572E+01  3.090E-02 
8.244E+02   2.565E+01  3.056E-02 
8.351E+02   2.559E+01  3.022E-02 
8.460E+02   2.552E+01  2.989E-02 
8.570E+02   2.545E+01  2.957E-02 
8.681E+02   2.538E+01  2.924E-02 
8.794E+02   2.530E+01  2.892E-02 
8.908E+02   2.523E+01  2.860E-02 
9.024E+02   2.515E+01  2.829E-02 
9.141E+02   2.508E+01  2.798E-02 
9.260E+02   2.500E+01  2.767E-02 
9.380E+02   2.492E+01  2.737E-02 
9.502E+02   2.484E+01  2.707E-02 
9.626E+02   2.475E+01  2.677E-02 
9.751E+02   2.467E+01  2.647E-02 
9.877E+02   2.459E+01  2.618E-02 
1.001E+03   2.450E+01  2.589E-02 
1.014E+03   2.441E+01  2.561E-02 
1.027E+03   2.433E+01  2.533E-02 
1.040E+03   2.424E+01  2.505E-02 
1.054E+03   2.415E+01  2.477E-02 
1.067E+03   2.406E+01  2.450E-02 
1.081E+03   2.396E+01  2.423E-02 
1.095E+03   2.387E+01  2.396E-02 
1.109E+03   2.378E+01  2.370E-02 
1.124E+03   2.368E+01  2.344E-02 
1.138E+03   2.359E+01  2.318E-02 
1.153E+03   2.349E+01  2.292E-02 
1.168E+03   2.339E+01  2.267E-02 
1.183E+03   2.329E+01  2.242E-02 
1.199E+03   2.319E+01  2.217E-02 
1.214E+03   2.309E+01  2.192E-02 
1.230E+03   2.299E+01  2.168E-02 
1.246E+03   2.289E+01  2.144E-02 
1.262E+03   2.279E+01  2.120E-02 
1.279E+03   2.268E+01  2.097E-02 
1.295E+03   2.258E+01  2.074E-02 
1.312E+03   2.247E+01  2.051E-02 
1.329E+03   2.237E+01  2.028E-02 
1.347E+03   2.226E+01  2.006E-02 
1.364E+03   2.216E+01  1.983E-02 
1.382E+03   2.205E+01  1.961E-02 
1.400E+03   2.194E+01  1.940E-02 
1.418E+03   2.183E+01  1.918E-02 
1.436E+03   2.172E+01  1.897E-02 
1.455E+03   2.161E+01  1.876E-02 
1.474E+03   2.150E+01  1.855E-02 
1.493E+03   2.139E+01  1.834E-02 
1.513E+03   2.128E+01  1.814E-02 
1.532E+03   2.117E+01  1.794E-02 
1.552E+03   2.105E+01  1.774E-02 
1.572E+03   2.094E+01  1.754E-02 
1.593E+03   2.083E+01  1.735E-02 
1.613E+03   2.071E+01  1.715E-02 
1.634E+03   2.060E+01  1.696E-02 
1.656E+03   2.049E+01  1.677E-02 
1.677E+03   2.037E+01  1.659E-02 
1.699E+03   2.026E+01  1.640E-02 
1.721E+03   2.014E+01  1.622E-02 
1.743E+03   2.003E+01  1.604E-02 
1.766E+03   1.991E+01  1.586E-02 
1.789E+03   1.980E+01  1.568E-02 
1.812E+03   1.968E+01  1.551E-02 
1.836E+03   1.956E+01  1.534E-02 
1.860E+03   1.945E+01  1.516E-02 
