Ion = Helium      . Mass = 4.0026
Tgt = Tl (Solid). Density = 11.85 g/cm3
Stopping Units =  eV/(1E15 atoms/cm2)
Energy(keV)  S(Elec)    S(Nuc)
1.000E+00   4.568E+00  1.736E+00 
1.013E+00   4.598E+00  1.741E+00 
1.026E+00   4.627E+00  1.746E+00 
1.039E+00   4.657E+00  1.751E+00 
1.053E+00   4.688E+00  1.755E+00 
1.067E+00   4.718E+00  1.760E+00 
1.081E+00   4.748E+00  1.765E+00 
1.095E+00   4.779E+00  1.770E+00 
1.109E+00   4.810E+00  1.774E+00 
1.123E+00   4.841E+00  1.779E+00 
1.138E+00   4.873E+00  1.784E+00 
1.153E+00   4.904E+00  1.789E+00 
1.168E+00   4.936E+00  1.793E+00 
1.183E+00   4.968E+00  1.798E+00 
1.198E+00   5.000E+00  1.803E+00 
1.214E+00   5.033E+00  1.807E+00 
1.229E+00   5.065E+00  1.812E+00 
1.245E+00   5.098E+00  1.816E+00 
1.262E+00   5.131E+00  1.821E+00 
1.278E+00   5.164E+00  1.825E+00 
1.295E+00   5.198E+00  1.830E+00 
1.311E+00   5.231E+00  1.834E+00 
1.329E+00   5.265E+00  1.839E+00 
1.346E+00   5.299E+00  1.843E+00 
1.363E+00   5.334E+00  1.848E+00 
1.381E+00   5.368E+00  1.852E+00 
1.399E+00   5.403E+00  1.856E+00 
1.417E+00   5.438E+00  1.861E+00 
1.436E+00   5.473E+00  1.865E+00 
1.454E+00   5.509E+00  1.869E+00 
1.473E+00   5.544E+00  1.874E+00 
1.492E+00   5.580E+00  1.878E+00 
1.512E+00   5.616E+00  1.882E+00 
1.531E+00   5.653E+00  1.886E+00 
1.551E+00   5.689E+00  1.890E+00 
1.571E+00   5.726E+00  1.895E+00 
1.592E+00   5.763E+00  1.899E+00 
1.612E+00   5.801E+00  1.903E+00 
1.633E+00   5.838E+00  1.907E+00 
1.655E+00   5.876E+00  1.911E+00 
1.676E+00   5.914E+00  1.915E+00 
1.698E+00   5.952E+00  1.919E+00 
1.720E+00   5.991E+00  1.923E+00 
1.742E+00   6.030E+00  1.927E+00 
1.765E+00   6.069E+00  1.931E+00 
1.788E+00   6.108E+00  1.935E+00 
1.811E+00   6.148E+00  1.938E+00 
1.835E+00   6.187E+00  1.942E+00 
1.859E+00   6.228E+00  1.946E+00 
1.883E+00   6.268E+00  1.950E+00 
1.907E+00   6.308E+00  1.954E+00 
1.932E+00   6.349E+00  1.957E+00 
1.957E+00   6.390E+00  1.961E+00 
1.983E+00   6.432E+00  1.965E+00 
2.008E+00   6.474E+00  1.968E+00 
2.034E+00   6.515E+00  1.972E+00 
2.061E+00   6.558E+00  1.975E+00 
2.088E+00   6.600E+00  1.979E+00 
2.115E+00   6.643E+00  1.982E+00 
2.142E+00   6.686E+00  1.986E+00 
2.170E+00   6.729E+00  1.989E+00 
2.198E+00   6.773E+00  1.993E+00 
2.227E+00   6.817E+00  1.996E+00 
2.256E+00   6.861E+00  1.999E+00 
2.285E+00   6.905E+00  2.003E+00 
2.315E+00   6.950E+00  2.006E+00 
2.345E+00   6.995E+00  2.009E+00 
2.375E+00   7.040E+00  2.012E+00 
2.406E+00   7.086E+00  2.016E+00 
2.438E+00   7.132E+00  2.019E+00 
2.469E+00   7.178E+00  2.022E+00 
2.501E+00   7.225E+00  2.025E+00 
2.534E+00   7.271E+00  2.028E+00 
2.567E+00   7.318E+00  2.031E+00 
2.600E+00   7.366E+00  2.034E+00 
2.634E+00   7.414E+00  2.037E+00 
2.668E+00   7.462E+00  2.040E+00 
2.703E+00   7.510E+00  2.043E+00 
2.738E+00   7.559E+00  2.046E+00 
2.773E+00   7.607E+00  2.048E+00 
2.810E+00   7.657E+00  2.051E+00 
2.846E+00   7.706E+00  2.054E+00 
2.883E+00   7.756E+00  2.056E+00 
2.921E+00   7.806E+00  2.059E+00 
2.958E+00   7.857E+00  2.062E+00 
2.997E+00   7.908E+00  2.064E+00 
3.036E+00   7.959E+00  2.067E+00 
3.075E+00   8.011E+00  2.069E+00 
3.115E+00   8.063E+00  2.072E+00 
3.156E+00   8.115E+00  2.074E+00 
3.197E+00   8.167E+00  2.076E+00 
3.238E+00   8.220E+00  2.079E+00 
3.280E+00   8.274E+00  2.081E+00 
3.323E+00   8.327E+00  2.083E+00 
3.366E+00   8.381E+00  2.086E+00 
3.410E+00   8.435E+00  2.088E+00 
3.454E+00   8.490E+00  2.090E+00 
3.499E+00   8.545E+00  2.092E+00 
3.545E+00   8.600E+00  2.094E+00 
3.591E+00   8.656E+00  2.096E+00 
3.637E+00   8.712E+00  2.098E+00 
3.685E+00   8.769E+00  2.100E+00 
3.733E+00   8.825E+00  2.102E+00 
3.781E+00   8.883E+00  2.104E+00 
3.830E+00   8.940E+00  2.105E+00 
3.880E+00   8.998E+00  2.107E+00 
3.930E+00   9.056E+00  2.109E+00 
3.982E+00   9.115E+00  2.110E+00 
4.033E+00   9.174E+00  2.112E+00 
4.086E+00   9.233E+00  2.114E+00 
4.139E+00   9.293E+00  2.115E+00 
4.193E+00   9.353E+00  2.117E+00 
4.247E+00   9.414E+00  2.118E+00 
4.302E+00   9.475E+00  2.119E+00 
4.358E+00   9.536E+00  2.121E+00 
4.415E+00   9.598E+00  2.122E+00 
4.472E+00   9.660E+00  2.123E+00 
4.530E+00   9.723E+00  2.125E+00 
4.589E+00   9.786E+00  2.126E+00 
4.649E+00   9.849E+00  2.127E+00 
4.709E+00   9.913E+00  2.128E+00 
4.770E+00   9.977E+00  2.129E+00 
4.832E+00   1.004E+01  2.130E+00 
4.895E+00   1.011E+01  2.131E+00 
4.959E+00   1.017E+01  2.132E+00 
5.023E+00   1.024E+01  2.133E+00 
5.089E+00   1.030E+01  2.133E+00 
5.155E+00   1.037E+01  2.134E+00 
5.222E+00   1.044E+01  2.135E+00 
5.290E+00   1.051E+01  2.135E+00 
5.358E+00   1.057E+01  2.136E+00 
5.428E+00   1.064E+01  2.136E+00 
5.499E+00   1.071E+01  2.137E+00 
5.570E+00   1.078E+01  2.137E+00 
5.642E+00   1.085E+01  2.138E+00 
5.716E+00   1.092E+01  2.138E+00 
5.790E+00   1.099E+01  2.138E+00 
5.865E+00   1.106E+01  2.139E+00 
5.942E+00   1.113E+01  2.139E+00 
6.019E+00   1.121E+01  2.139E+00 
6.097E+00   1.128E+01  2.139E+00 
6.176E+00   1.135E+01  2.139E+00 
6.256E+00   1.143E+01  2.139E+00 
6.338E+00   1.150E+01  2.139E+00 
6.420E+00   1.157E+01  2.139E+00 
6.504E+00   1.165E+01  2.139E+00 
6.588E+00   1.172E+01  2.138E+00 
6.674E+00   1.180E+01  2.138E+00 
6.760E+00   1.188E+01  2.138E+00 
6.848E+00   1.195E+01  2.137E+00 
6.937E+00   1.203E+01  2.137E+00 
7.027E+00   1.211E+01  2.136E+00 
7.119E+00   1.219E+01  2.136E+00 
7.211E+00   1.227E+01  2.135E+00 
7.305E+00   1.235E+01  2.135E+00 
7.400E+00   1.243E+01  2.134E+00 
7.496E+00   1.251E+01  2.133E+00 
7.594E+00   1.259E+01  2.132E+00 
7.692E+00   1.267E+01  2.131E+00 
7.792E+00   1.275E+01  2.130E+00 
7.894E+00   1.283E+01  2.129E+00 
7.996E+00   1.292E+01  2.128E+00 
8.100E+00   1.301E+01  2.127E+00 
8.205E+00   1.311E+01  2.126E+00 
8.312E+00   1.321E+01  2.125E+00 
8.420E+00   1.330E+01  2.124E+00 
8.529E+00   1.340E+01  2.122E+00 
8.640E+00   1.350E+01  2.121E+00 
8.753E+00   1.360E+01  2.120E+00 
8.866E+00   1.371E+01  2.118E+00 
8.982E+00   1.381E+01  2.117E+00 
9.098E+00   1.391E+01  2.115E+00 
9.217E+00   1.401E+01  2.113E+00 
9.336E+00   1.412E+01  2.112E+00 
9.458E+00   1.422E+01  2.110E+00 
9.581E+00   1.433E+01  2.108E+00 
9.705E+00   1.444E+01  2.106E+00 
9.831E+00   1.455E+01  2.104E+00 
9.959E+00   1.465E+01  2.102E+00 
1.009E+01   1.476E+01  2.100E+00 
1.022E+01   1.487E+01  2.098E+00 
1.035E+01   1.499E+01  2.096E+00 
1.049E+01   1.510E+01  2.094E+00 
1.062E+01   1.521E+01  2.091E+00 
1.076E+01   1.532E+01  2.089E+00 
1.090E+01   1.544E+01  2.087E+00 
1.104E+01   1.555E+01  2.084E+00 
1.119E+01   1.567E+01  2.082E+00 
1.133E+01   1.579E+01  2.079E+00 
1.148E+01   1.591E+01  2.077E+00 
1.163E+01   1.602E+01  2.074E+00 
1.178E+01   1.614E+01  2.071E+00 
1.193E+01   1.627E+01  2.068E+00 
1.209E+01   1.639E+01  2.066E+00 
1.224E+01   1.651E+01  2.063E+00 
1.240E+01   1.663E+01  2.060E+00 
1.256E+01   1.676E+01  2.057E+00 
1.273E+01   1.688E+01  2.054E+00 
1.289E+01   1.701E+01  2.051E+00 
1.306E+01   1.714E+01  2.047E+00 
1.323E+01   1.727E+01  2.044E+00 
1.340E+01   1.740E+01  2.041E+00 
1.358E+01   1.753E+01  2.038E+00 
1.375E+01   1.766E+01  2.034E+00 
1.393E+01   1.779E+01  2.031E+00 
1.411E+01   1.793E+01  2.027E+00 
1.430E+01   1.806E+01  2.024E+00 
1.448E+01   1.820E+01  2.020E+00 
1.467E+01   1.833E+01  2.016E+00 
1.486E+01   1.847E+01  2.013E+00 
1.505E+01   1.861E+01  2.009E+00 
1.525E+01   1.875E+01  2.005E+00 
1.545E+01   1.889E+01  2.001E+00 
1.565E+01   1.903E+01  1.997E+00 
1.585E+01   1.918E+01  1.993E+00 
1.606E+01   1.932E+01  1.989E+00 
1.627E+01   1.947E+01  1.985E+00 
1.648E+01   1.961E+01  1.981E+00 
1.669E+01   1.976E+01  1.977E+00 
1.691E+01   1.991E+01  1.973E+00 
1.713E+01   2.006E+01  1.968E+00 
1.735E+01   2.021E+01  1.964E+00 
1.758E+01   2.036E+01  1.960E+00 
1.781E+01   2.052E+01  1.955E+00 
1.804E+01   2.067E+01  1.951E+00 
1.827E+01   2.083E+01  1.946E+00 
1.851E+01   2.098E+01  1.941E+00 
1.875E+01   2.114E+01  1.937E+00 
1.899E+01   2.130E+01  1.932E+00 
1.924E+01   2.146E+01  1.927E+00 
1.949E+01   2.162E+01  1.923E+00 
1.974E+01   2.179E+01  1.918E+00 
2.000E+01   2.195E+01  1.913E+00 
2.026E+01   2.212E+01  1.908E+00 
2.052E+01   2.228E+01  1.903E+00 
2.079E+01   2.245E+01  1.898E+00 
2.106E+01   2.262E+01  1.893E+00 
2.133E+01   2.279E+01  1.888E+00 
2.161E+01   2.296E+01  1.882E+00 
2.189E+01   2.314E+01  1.877E+00 
2.218E+01   2.331E+01  1.872E+00 
2.247E+01   2.349E+01  1.867E+00 
2.276E+01   2.367E+01  1.861E+00 
2.305E+01   2.384E+01  1.856E+00 
2.335E+01   2.403E+01  1.850E+00 
2.366E+01   2.421E+01  1.845E+00 
2.396E+01   2.439E+01  1.839E+00 
2.428E+01   2.457E+01  1.834E+00 
2.459E+01   2.476E+01  1.828E+00 
2.491E+01   2.495E+01  1.823E+00 
2.523E+01   2.514E+01  1.817E+00 
2.556E+01   2.533E+01  1.811E+00 
2.589E+01   2.552E+01  1.805E+00 
2.623E+01   2.571E+01  1.800E+00 
2.657E+01   2.591E+01  1.794E+00 
2.692E+01   2.610E+01  1.788E+00 
2.727E+01   2.630E+01  1.782E+00 
2.762E+01   2.650E+01  1.776E+00 
2.798E+01   2.670E+01  1.770E+00 
2.834E+01   2.690E+01  1.764E+00 
2.871E+01   2.710E+01  1.758E+00 
2.909E+01   2.731E+01  1.752E+00 
2.946E+01   2.752E+01  1.746E+00 
2.985E+01   2.772E+01  1.739E+00 
3.023E+01   2.793E+01  1.733E+00 
3.063E+01   2.815E+01  1.727E+00 
3.103E+01   2.836E+01  1.721E+00 
3.143E+01   2.857E+01  1.714E+00 
3.184E+01   2.879E+01  1.708E+00 
3.225E+01   2.901E+01  1.702E+00 
3.267E+01   2.923E+01  1.695E+00 
3.309E+01   2.945E+01  1.689E+00 
3.352E+01   2.967E+01  1.682E+00 
3.396E+01   2.990E+01  1.676E+00 
3.440E+01   3.012E+01  1.669E+00 
3.485E+01   3.035E+01  1.663E+00 
3.530E+01   3.058E+01  1.656E+00 
3.576E+01   3.081E+01  1.649E+00 
3.623E+01   3.105E+01  1.643E+00 
3.670E+01   3.128E+01  1.636E+00 
3.717E+01   3.152E+01  1.629E+00 
3.766E+01   3.176E+01  1.623E+00 
3.815E+01   3.200E+01  1.616E+00 
3.864E+01   3.224E+01  1.609E+00 
3.914E+01   3.248E+01  1.603E+00 
3.965E+01   3.273E+01  1.596E+00 
4.017E+01   3.298E+01  1.589E+00 
4.069E+01   3.323E+01  1.582E+00 
4.122E+01   3.348E+01  1.575E+00 
4.175E+01   3.373E+01  1.568E+00 
4.230E+01   3.399E+01  1.561E+00 
4.285E+01   3.424E+01  1.554E+00 
4.340E+01   3.450E+01  1.548E+00 
4.397E+01   3.476E+01  1.541E+00 
4.454E+01   3.503E+01  1.534E+00 
4.512E+01   3.529E+01  1.527E+00 
4.570E+01   3.556E+01  1.520E+00 
4.630E+01   3.583E+01  1.513E+00 
4.690E+01   3.610E+01  1.506E+00 
4.751E+01   3.637E+01  1.499E+00 
4.813E+01   3.665E+01  1.491E+00 
4.875E+01   3.692E+01  1.484E+00 
4.939E+01   3.720E+01  1.477E+00 
5.003E+01   3.748E+01  1.470E+00 
5.068E+01   3.777E+01  1.463E+00 
5.134E+01   3.805E+01  1.456E+00 
5.200E+01   3.834E+01  1.449E+00 
5.268E+01   3.863E+01  1.442E+00 
5.336E+01   3.892E+01  1.435E+00 
5.406E+01   3.921E+01  1.427E+00 
5.476E+01   3.951E+01  1.420E+00 
5.547E+01   3.981E+01  1.413E+00 
5.619E+01   4.011E+01  1.406E+00 
5.692E+01   4.041E+01  1.399E+00 
5.766E+01   4.071E+01  1.391E+00 
5.841E+01   4.102E+01  1.384E+00 
5.917E+01   4.133E+01  1.377E+00 
5.994E+01   4.164E+01  1.370E+00 
6.072E+01   4.195E+01  1.363E+00 
6.151E+01   4.227E+01  1.355E+00 
6.231E+01   4.258E+01  1.348E+00 
6.312E+01   4.290E+01  1.341E+00 
6.394E+01   4.323E+01  1.334E+00 
6.477E+01   4.355E+01  1.327E+00 
6.561E+01   4.388E+01  1.319E+00 
6.646E+01   4.421E+01  1.312E+00 
6.733E+01   4.454E+01  1.305E+00 
6.820E+01   4.487E+01  1.298E+00 
6.909E+01   4.521E+01  1.291E+00 
6.999E+01   4.555E+01  1.283E+00 
7.090E+01   4.589E+01  1.276E+00 
7.182E+01   4.623E+01  1.269E+00 
7.275E+01   4.658E+01  1.262E+00 
7.370E+01   4.692E+01  1.255E+00 
7.465E+01   4.727E+01  1.247E+00 
7.562E+01   4.763E+01  1.240E+00 
7.661E+01   4.798E+01  1.233E+00 
7.760E+01   4.834E+01  1.226E+00 
7.861E+01   4.870E+01  1.219E+00 
7.963E+01   4.906E+01  1.212E+00 
8.067E+01   4.943E+01  1.204E+00 
8.172E+01   4.980E+01  1.197E+00 
8.278E+01   5.017E+01  1.190E+00 
8.385E+01   5.054E+01  1.183E+00 
8.494E+01   5.091E+01  1.176E+00 
8.605E+01   5.129E+01  1.169E+00 
8.717E+01   5.167E+01  1.162E+00 
8.830E+01   5.205E+01  1.155E+00 
8.945E+01   5.244E+01  1.148E+00 
9.061E+01   5.282E+01  1.141E+00 
9.179E+01   5.321E+01  1.134E+00 
9.298E+01   5.361E+01  1.127E+00 
9.419E+01   5.400E+01  1.120E+00 
9.541E+01   5.440E+01  1.113E+00 
9.665E+01   5.480E+01  1.106E+00 
9.791E+01   5.520E+01  1.099E+00 
9.918E+01   5.561E+01  1.092E+00 
1.005E+02   5.602E+01  1.085E+00 
1.018E+02   5.643E+01  1.078E+00 
1.031E+02   5.684E+01  1.071E+00 
1.044E+02   5.726E+01  1.064E+00 
1.058E+02   5.767E+01  1.057E+00 
1.072E+02   5.809E+01  1.050E+00 
1.086E+02   5.852E+01  1.044E+00 
1.100E+02   5.894E+01  1.037E+00 
1.114E+02   5.937E+01  1.030E+00 
1.129E+02   5.980E+01  1.023E+00 
1.143E+02   6.024E+01  1.016E+00 
1.158E+02   6.067E+01  1.010E+00 
1.173E+02   6.111E+01  1.003E+00 
1.188E+02   6.155E+01  9.963E-01 
1.204E+02   6.200E+01  9.896E-01 
1.219E+02   6.244E+01  9.830E-01 
1.235E+02   6.289E+01  9.763E-01 
1.251E+02   6.334E+01  9.697E-01 
1.268E+02   6.380E+01  9.631E-01 
1.284E+02   6.425E+01  9.565E-01 
1.301E+02   6.471E+01  9.500E-01 
1.318E+02   6.517E+01  9.435E-01 
1.335E+02   6.564E+01  9.369E-01 
1.352E+02   6.611E+01  9.305E-01 
1.370E+02   6.657E+01  9.240E-01 
1.388E+02   6.705E+01  9.176E-01 
1.406E+02   6.752E+01  9.111E-01 
1.424E+02   6.800E+01  9.048E-01 
1.442E+02   6.848E+01  8.984E-01 
1.461E+02   6.896E+01  8.920E-01 
1.480E+02   6.944E+01  8.857E-01 
1.499E+02   6.993E+01  8.794E-01 
1.519E+02   7.042E+01  8.732E-01 
1.539E+02   7.091E+01  8.669E-01 
1.559E+02   7.140E+01  8.607E-01 
1.579E+02   7.190E+01  8.545E-01 
1.599E+02   7.239E+01  8.483E-01 
1.620E+02   7.289E+01  8.422E-01 
1.641E+02   7.340E+01  8.361E-01 
1.662E+02   7.390E+01  8.300E-01 
1.684E+02   7.441E+01  8.239E-01 
1.706E+02   7.492E+01  8.179E-01 
1.728E+02   7.543E+01  8.119E-01 
1.751E+02   7.594E+01  8.059E-01 
1.773E+02   7.646E+01  7.999E-01 
1.796E+02   7.698E+01  7.940E-01 
1.820E+02   7.750E+01  7.881E-01 
1.843E+02   7.802E+01  7.822E-01 
1.867E+02   7.854E+01  7.764E-01 
1.892E+02   7.907E+01  7.705E-01 
1.916E+02   7.959E+01  7.648E-01 
1.941E+02   8.012E+01  7.590E-01 
1.966E+02   8.065E+01  7.532E-01 
1.992E+02   8.119E+01  7.475E-01 
2.018E+02   8.172E+01  7.419E-01 
2.044E+02   8.226E+01  7.362E-01 
2.071E+02   8.280E+01  7.306E-01 
2.097E+02   8.334E+01  7.250E-01 
2.125E+02   8.388E+01  7.194E-01 
2.152E+02   8.442E+01  7.139E-01 
2.180E+02   8.496E+01  7.083E-01 
2.209E+02   8.551E+01  7.029E-01 
2.237E+02   8.606E+01  6.974E-01 
2.266E+02   8.660E+01  6.920E-01 
2.296E+02   8.715E+01  6.866E-01 
2.326E+02   8.770E+01  6.812E-01 
2.356E+02   8.825E+01  6.759E-01 
2.387E+02   8.881E+01  6.706E-01 
2.418E+02   8.936E+01  6.653E-01 
2.449E+02   8.992E+01  6.600E-01 
2.481E+02   9.047E+01  6.548E-01 
2.513E+02   9.103E+01  6.496E-01 
2.546E+02   9.158E+01  6.444E-01 
2.579E+02   9.214E+01  6.393E-01 
2.612E+02   9.270E+01  6.342E-01 
2.646E+02   9.326E+01  6.291E-01 
2.681E+02   9.381E+01  6.241E-01 
2.716E+02   9.437E+01  6.190E-01 
2.751E+02   9.493E+01  6.140E-01 
2.787E+02   9.549E+01  6.091E-01 
2.823E+02   9.605E+01  6.042E-01 
2.859E+02   9.661E+01  5.993E-01 
2.897E+02   9.717E+01  5.944E-01 
2.934E+02   9.773E+01  5.895E-01 
2.972E+02   9.828E+01  5.847E-01 
3.011E+02   9.884E+01  5.799E-01 
3.050E+02   9.940E+01  5.752E-01 
3.090E+02   9.996E+01  5.704E-01 
3.130E+02   1.005E+02  5.657E-01 
3.171E+02   1.011E+02  5.611E-01 
3.212E+02   1.016E+02  5.564E-01 
3.254E+02   1.022E+02  5.518E-01 
3.296E+02   1.027E+02  5.472E-01 
3.339E+02   1.033E+02  5.427E-01 
3.382E+02   1.038E+02  5.382E-01 
3.426E+02   1.044E+02  5.337E-01 
3.471E+02   1.049E+02  5.292E-01 
3.516E+02   1.055E+02  5.247E-01 
3.561E+02   1.060E+02  5.203E-01 
3.608E+02   1.065E+02  5.160E-01 
3.655E+02   1.071E+02  5.116E-01 
3.702E+02   1.076E+02  5.073E-01 
3.750E+02   1.081E+02  5.030E-01 
3.799E+02   1.087E+02  4.987E-01 
3.848E+02   1.092E+02  4.945E-01 
3.898E+02   1.097E+02  4.903E-01 
3.949E+02   1.103E+02  4.861E-01 
4.000E+02   1.108E+02  4.819E-01 
4.052E+02   1.113E+02  4.778E-01 
4.105E+02   1.118E+02  4.737E-01 
4.158E+02   1.123E+02  4.696E-01 
4.212E+02   1.128E+02  4.656E-01 
4.267E+02   1.133E+02  4.616E-01 
4.323E+02   1.138E+02  4.576E-01 
4.379E+02   1.143E+02  4.536E-01 
4.436E+02   1.148E+02  4.497E-01 
4.493E+02   1.153E+02  4.458E-01 
4.552E+02   1.158E+02  4.419E-01 
4.611E+02   1.162E+02  4.381E-01 
4.671E+02   1.167E+02  4.342E-01 
4.731E+02   1.172E+02  4.304E-01 
4.793E+02   1.176E+02  4.267E-01 
4.855E+02   1.181E+02  4.229E-01 
4.918E+02   1.185E+02  4.192E-01 
4.982E+02   1.190E+02  4.155E-01 
5.047E+02   1.194E+02  4.119E-01 
5.113E+02   1.198E+02  4.082E-01 
5.179E+02   1.203E+02  4.046E-01 
5.246E+02   1.207E+02  4.010E-01 
5.315E+02   1.211E+02  3.975E-01 
5.384E+02   1.215E+02  3.939E-01 
5.454E+02   1.219E+02  3.904E-01 
5.524E+02   1.223E+02  3.870E-01 
5.596E+02   1.227E+02  3.835E-01 
5.669E+02   1.230E+02  3.801E-01 
5.743E+02   1.234E+02  3.767E-01 
5.817E+02   1.238E+02  3.733E-01 
5.893E+02   1.241E+02  3.699E-01 
5.969E+02   1.245E+02  3.666E-01 
6.047E+02   1.248E+02  3.774E-01 
6.126E+02   1.251E+02  3.739E-01 
6.205E+02   1.255E+02  3.705E-01 
6.286E+02   1.258E+02  3.672E-01 
6.368E+02   1.261E+02  3.638E-01 
6.450E+02   1.264E+02  3.605E-01 
6.534E+02   1.267E+02  3.572E-01 
6.619E+02   1.269E+02  3.539E-01 
6.705E+02   1.272E+02  3.506E-01 
6.792E+02   1.275E+02  3.474E-01 
6.881E+02   1.277E+02  3.442E-01 
6.970E+02   1.280E+02  3.410E-01 
7.061E+02   1.282E+02  3.379E-01 
7.152E+02   1.284E+02  3.348E-01 
7.245E+02   1.286E+02  3.316E-01 
7.339E+02   1.288E+02  3.286E-01 
7.435E+02   1.290E+02  3.255E-01 
7.531E+02   1.292E+02  3.225E-01 
7.629E+02   1.294E+02  3.195E-01 
7.728E+02   1.295E+02  3.165E-01 
7.829E+02   1.297E+02  3.135E-01 
7.931E+02   1.298E+02  3.106E-01 
8.034E+02   1.299E+02  3.077E-01 
8.138E+02   1.301E+02  3.048E-01 
8.244E+02   1.302E+02  3.019E-01 
8.351E+02   1.303E+02  2.991E-01 
8.460E+02   1.303E+02  2.963E-01 
8.570E+02   1.304E+02  2.935E-01 
8.681E+02   1.305E+02  2.907E-01 
8.794E+02   1.305E+02  2.880E-01 
8.908E+02   1.306E+02  2.852E-01 
9.024E+02   1.306E+02  2.825E-01 
9.141E+02   1.306E+02  2.799E-01 
9.260E+02   1.306E+02  2.772E-01 
9.380E+02   1.306E+02  2.746E-01 
9.502E+02   1.306E+02  2.720E-01 
9.626E+02   1.306E+02  2.694E-01 
9.751E+02   1.305E+02  2.668E-01 
9.877E+02   1.305E+02  2.642E-01 
1.001E+03   1.304E+02  2.617E-01 
1.014E+03   1.303E+02  2.592E-01 
1.027E+03   1.303E+02  2.567E-01 
1.040E+03   1.302E+02  2.543E-01 
1.054E+03   1.301E+02  2.518E-01 
1.067E+03   1.299E+02  2.494E-01 
1.081E+03   1.298E+02  2.470E-01 
1.095E+03   1.297E+02  2.446E-01 
1.109E+03   1.295E+02  2.423E-01 
1.124E+03   1.293E+02  2.399E-01 
1.138E+03   1.292E+02  2.376E-01 
1.153E+03   1.290E+02  2.353E-01 
1.168E+03   1.288E+02  2.330E-01 
1.183E+03   1.286E+02  2.308E-01 
1.199E+03   1.284E+02  2.285E-01 
1.214E+03   1.281E+02  2.263E-01 
1.230E+03   1.279E+02  2.241E-01 
1.246E+03   1.276E+02  2.219E-01 
1.262E+03   1.274E+02  2.197E-01 
1.279E+03   1.271E+02  2.176E-01 
1.295E+03   1.268E+02  2.155E-01 
1.312E+03   1.265E+02  2.134E-01 
1.329E+03   1.262E+02  2.113E-01 
1.347E+03   1.259E+02  2.092E-01 
1.364E+03   1.256E+02  2.072E-01 
1.382E+03   1.253E+02  2.051E-01 
1.400E+03   1.249E+02  2.031E-01 
1.418E+03   1.246E+02  2.011E-01 
1.436E+03   1.242E+02  1.991E-01 
1.455E+03   1.239E+02  1.972E-01 
1.474E+03   1.235E+02  1.952E-01 
1.493E+03   1.231E+02  1.933E-01 
1.513E+03   1.227E+02  1.914E-01 
1.532E+03   1.223E+02  1.895E-01 
1.552E+03   1.219E+02  1.876E-01 
1.572E+03   1.215E+02  1.858E-01 
1.593E+03   1.211E+02  1.839E-01 
1.613E+03   1.207E+02  1.821E-01 
1.634E+03   1.202E+02  1.803E-01 
1.656E+03   1.198E+02  1.785E-01 
1.677E+03   1.194E+02  1.767E-01 
1.699E+03   1.189E+02  1.750E-01 
1.721E+03   1.184E+02  1.732E-01 
1.743E+03   1.180E+02  1.715E-01 
1.766E+03   1.175E+02  1.698E-01 
1.789E+03   1.170E+02  1.681E-01 
1.812E+03   1.165E+02  1.664E-01 
1.836E+03   1.160E+02  1.647E-01 
1.860E+03   1.156E+02  1.631E-01 
