Ion = Helium      . Mass = 4.0026
Tgt = Gd (Solid). Density = 7.901 g/cm3
Stopping Units =  eV/(1E15 atoms/cm2)
Energy(keV)  S(Elec)    S(Nuc)
1.000E+00   6.586E+00  2.017E+00 
1.013E+00   6.628E+00  2.023E+00 
1.026E+00   6.671E+00  2.028E+00 
1.039E+00   6.714E+00  2.034E+00 
1.053E+00   6.758E+00  2.040E+00 
1.067E+00   6.802E+00  2.045E+00 
1.081E+00   6.846E+00  2.051E+00 
1.095E+00   6.890E+00  2.056E+00 
1.109E+00   6.935E+00  2.062E+00 
1.123E+00   6.980E+00  2.067E+00 
1.138E+00   7.025E+00  2.073E+00 
1.153E+00   7.070E+00  2.078E+00 
1.168E+00   7.116E+00  2.084E+00 
1.183E+00   7.162E+00  2.089E+00 
1.198E+00   7.209E+00  2.094E+00 
1.214E+00   7.255E+00  2.100E+00 
1.229E+00   7.302E+00  2.105E+00 
1.245E+00   7.350E+00  2.110E+00 
1.262E+00   7.397E+00  2.115E+00 
1.278E+00   7.445E+00  2.121E+00 
1.295E+00   7.493E+00  2.126E+00 
1.311E+00   7.542E+00  2.131E+00 
1.329E+00   7.591E+00  2.136E+00 
1.346E+00   7.640E+00  2.141E+00 
1.363E+00   7.689E+00  2.146E+00 
1.381E+00   7.739E+00  2.151E+00 
1.399E+00   7.789E+00  2.157E+00 
1.417E+00   7.840E+00  2.162E+00 
1.436E+00   7.891E+00  2.166E+00 
1.454E+00   7.942E+00  2.171E+00 
1.473E+00   7.993E+00  2.176E+00 
1.492E+00   8.045E+00  2.181E+00 
1.512E+00   8.097E+00  2.186E+00 
1.531E+00   8.149E+00  2.191E+00 
1.551E+00   8.202E+00  2.196E+00 
1.571E+00   8.255E+00  2.200E+00 
1.592E+00   8.309E+00  2.205E+00 
1.612E+00   8.363E+00  2.210E+00 
1.633E+00   8.417E+00  2.214E+00 
1.655E+00   8.471E+00  2.219E+00 
1.676E+00   8.526E+00  2.224E+00 
1.698E+00   8.581E+00  2.228E+00 
1.720E+00   8.637E+00  2.233E+00 
1.742E+00   8.693E+00  2.237E+00 
1.765E+00   8.749E+00  2.242E+00 
1.788E+00   8.806E+00  2.246E+00 
1.811E+00   8.863E+00  2.250E+00 
1.835E+00   8.920E+00  2.255E+00 
1.859E+00   8.978E+00  2.259E+00 
1.883E+00   9.036E+00  2.263E+00 
1.907E+00   9.095E+00  2.267E+00 
1.932E+00   9.154E+00  2.272E+00 
1.957E+00   9.213E+00  2.276E+00 
1.983E+00   9.273E+00  2.280E+00 
2.008E+00   9.333E+00  2.284E+00 
2.034E+00   9.393E+00  2.288E+00 
2.061E+00   9.454E+00  2.292E+00 
2.088E+00   9.515E+00  2.296E+00 
2.115E+00   9.577E+00  2.300E+00 
2.142E+00   9.639E+00  2.303E+00 
2.170E+00   9.701E+00  2.307E+00 
2.198E+00   9.764E+00  2.311E+00 
2.227E+00   9.827E+00  2.315E+00 
2.256E+00   9.891E+00  2.318E+00 
2.285E+00   9.955E+00  2.322E+00 
2.315E+00   1.002E+01  2.326E+00 
2.345E+00   1.008E+01  2.329E+00 
2.375E+00   1.015E+01  2.333E+00 
2.406E+00   1.022E+01  2.336E+00 
2.438E+00   1.028E+01  2.339E+00 
2.469E+00   1.035E+01  2.343E+00 
2.501E+00   1.042E+01  2.346E+00 
2.534E+00   1.048E+01  2.349E+00 
2.567E+00   1.055E+01  2.352E+00 
2.600E+00   1.062E+01  2.356E+00 
2.634E+00   1.069E+01  2.359E+00 
2.668E+00   1.076E+01  2.362E+00 
2.703E+00   1.083E+01  2.365E+00 
2.738E+00   1.090E+01  2.368E+00 
2.773E+00   1.097E+01  2.371E+00 
2.810E+00   1.104E+01  2.373E+00 
2.846E+00   1.111E+01  2.376E+00 
2.883E+00   1.118E+01  2.379E+00 
2.921E+00   1.125E+01  2.382E+00 
2.958E+00   1.133E+01  2.384E+00 
2.997E+00   1.140E+01  2.387E+00 
3.036E+00   1.147E+01  2.389E+00 
3.075E+00   1.155E+01  2.392E+00 
3.115E+00   1.162E+01  2.394E+00 
3.156E+00   1.170E+01  2.397E+00 
3.197E+00   1.177E+01  2.399E+00 
3.238E+00   1.185E+01  2.401E+00 
3.280E+00   1.193E+01  2.403E+00 
3.323E+00   1.201E+01  2.406E+00 
3.366E+00   1.208E+01  2.408E+00 
3.410E+00   1.216E+01  2.410E+00 
3.454E+00   1.224E+01  2.412E+00 
3.499E+00   1.232E+01  2.413E+00 
3.545E+00   1.240E+01  2.415E+00 
3.591E+00   1.248E+01  2.417E+00 
3.637E+00   1.256E+01  2.419E+00 
3.685E+00   1.264E+01  2.421E+00 
3.733E+00   1.272E+01  2.422E+00 
3.781E+00   1.281E+01  2.424E+00 
3.830E+00   1.289E+01  2.425E+00 
3.880E+00   1.297E+01  2.427E+00 
3.930E+00   1.306E+01  2.428E+00 
3.982E+00   1.314E+01  2.429E+00 
4.033E+00   1.323E+01  2.431E+00 
4.086E+00   1.331E+01  2.432E+00 
4.139E+00   1.340E+01  2.433E+00 
4.193E+00   1.348E+01  2.434E+00 
4.247E+00   1.357E+01  2.435E+00 
4.302E+00   1.366E+01  2.436E+00 
4.358E+00   1.375E+01  2.437E+00 
4.415E+00   1.384E+01  2.438E+00 
4.472E+00   1.393E+01  2.438E+00 
4.530E+00   1.402E+01  2.439E+00 
4.589E+00   1.411E+01  2.440E+00 
4.649E+00   1.420E+01  2.440E+00 
4.709E+00   1.429E+01  2.441E+00 
4.770E+00   1.438E+01  2.441E+00 
4.832E+00   1.448E+01  2.441E+00 
4.895E+00   1.457E+01  2.442E+00 
4.959E+00   1.467E+01  2.442E+00 
5.023E+00   1.476E+01  2.442E+00 
5.089E+00   1.486E+01  2.442E+00 
5.155E+00   1.495E+01  2.442E+00 
5.222E+00   1.505E+01  2.442E+00 
5.290E+00   1.515E+01  2.442E+00 
5.358E+00   1.524E+01  2.442E+00 
5.428E+00   1.534E+01  2.441E+00 
5.499E+00   1.544E+01  2.441E+00 
5.570E+00   1.554E+01  2.441E+00 
5.642E+00   1.564E+01  2.440E+00 
5.716E+00   1.574E+01  2.440E+00 
5.790E+00   1.585E+01  2.439E+00 
5.865E+00   1.595E+01  2.438E+00 
5.942E+00   1.605E+01  2.438E+00 
6.019E+00   1.616E+01  2.437E+00 
6.097E+00   1.626E+01  2.436E+00 
6.176E+00   1.637E+01  2.435E+00 
6.256E+00   1.647E+01  2.434E+00 
6.338E+00   1.658E+01  2.433E+00 
6.420E+00   1.669E+01  2.432E+00 
6.504E+00   1.679E+01  2.430E+00 
6.588E+00   1.690E+01  2.429E+00 
6.674E+00   1.701E+01  2.428E+00 
6.760E+00   1.712E+01  2.426E+00 
6.848E+00   1.723E+01  2.425E+00 
6.937E+00   1.735E+01  2.423E+00 
7.027E+00   1.746E+01  2.421E+00 
7.119E+00   1.757E+01  2.420E+00 
7.211E+00   1.768E+01  2.418E+00 
7.305E+00   1.780E+01  2.416E+00 
7.400E+00   1.791E+01  2.414E+00 
7.496E+00   1.803E+01  2.412E+00 
7.594E+00   1.815E+01  2.410E+00 
7.692E+00   1.827E+01  2.408E+00 
7.792E+00   1.838E+01  2.405E+00 
7.894E+00   1.850E+01  2.403E+00 
7.996E+00   1.862E+01  2.401E+00 
8.100E+00   1.875E+01  2.398E+00 
8.205E+00   1.888E+01  2.396E+00 
8.312E+00   1.902E+01  2.393E+00 
8.420E+00   1.915E+01  2.390E+00 
8.529E+00   1.929E+01  2.388E+00 
8.640E+00   1.942E+01  2.385E+00 
8.753E+00   1.956E+01  2.382E+00 
8.866E+00   1.970E+01  2.379E+00 
8.982E+00   1.984E+01  2.376E+00 
9.098E+00   1.998E+01  2.373E+00 
9.217E+00   2.012E+01  2.370E+00 
9.336E+00   2.026E+01  2.366E+00 
9.458E+00   2.040E+01  2.363E+00 
9.581E+00   2.055E+01  2.360E+00 
9.705E+00   2.069E+01  2.356E+00 
9.831E+00   2.084E+01  2.353E+00 
9.959E+00   2.098E+01  2.349E+00 
1.009E+01   2.113E+01  2.346E+00 
1.022E+01   2.128E+01  2.342E+00 
1.035E+01   2.143E+01  2.338E+00 
1.049E+01   2.158E+01  2.334E+00 
1.062E+01   2.173E+01  2.330E+00 
1.076E+01   2.189E+01  2.326E+00 
1.090E+01   2.204E+01  2.322E+00 
1.104E+01   2.220E+01  2.318E+00 
1.119E+01   2.235E+01  2.314E+00 
1.133E+01   2.251E+01  2.309E+00 
1.148E+01   2.267E+01  2.305E+00 
1.163E+01   2.283E+01  2.301E+00 
1.178E+01   2.299E+01  2.296E+00 
1.193E+01   2.315E+01  2.291E+00 
1.209E+01   2.331E+01  2.287E+00 
1.224E+01   2.348E+01  2.282E+00 
1.240E+01   2.364E+01  2.277E+00 
1.256E+01   2.381E+01  2.273E+00 
1.273E+01   2.398E+01  2.268E+00 
1.289E+01   2.414E+01  2.263E+00 
1.306E+01   2.431E+01  2.258E+00 
1.323E+01   2.448E+01  2.253E+00 
1.340E+01   2.466E+01  2.247E+00 
1.358E+01   2.483E+01  2.242E+00 
1.375E+01   2.500E+01  2.237E+00 
1.393E+01   2.518E+01  2.232E+00 
1.411E+01   2.535E+01  2.226E+00 
1.430E+01   2.553E+01  2.221E+00 
1.448E+01   2.571E+01  2.215E+00 
1.467E+01   2.589E+01  2.210E+00 
1.486E+01   2.607E+01  2.204E+00 
1.505E+01   2.625E+01  2.198E+00 
1.525E+01   2.643E+01  2.193E+00 
1.545E+01   2.661E+01  2.187E+00 
1.565E+01   2.680E+01  2.181E+00 
1.585E+01   2.699E+01  2.175E+00 
1.606E+01   2.717E+01  2.169E+00 
1.627E+01   2.736E+01  2.163E+00 
1.648E+01   2.755E+01  2.157E+00 
1.669E+01   2.774E+01  2.151E+00 
1.691E+01   2.793E+01  2.144E+00 
1.713E+01   2.812E+01  2.138E+00 
1.735E+01   2.831E+01  2.132E+00 
1.758E+01   2.851E+01  2.125E+00 
1.781E+01   2.870E+01  2.119E+00 
1.804E+01   2.890E+01  2.112E+00 
1.827E+01   2.910E+01  2.106E+00 
1.851E+01   2.929E+01  2.099E+00 
1.875E+01   2.949E+01  2.093E+00 
1.899E+01   2.969E+01  2.086E+00 
1.924E+01   2.990E+01  2.079E+00 
1.949E+01   3.010E+01  2.073E+00 
1.974E+01   3.030E+01  2.066E+00 
2.000E+01   3.050E+01  2.059E+00 
2.026E+01   3.071E+01  2.052E+00 
2.052E+01   3.091E+01  2.045E+00 
2.079E+01   3.112E+01  2.038E+00 
2.106E+01   3.133E+01  2.031E+00 
2.133E+01   3.154E+01  2.024E+00 
2.161E+01   3.175E+01  2.017E+00 
2.189E+01   3.196E+01  2.009E+00 
2.218E+01   3.217E+01  2.002E+00 
2.247E+01   3.238E+01  1.995E+00 
2.276E+01   3.259E+01  1.988E+00 
2.305E+01   3.281E+01  1.980E+00 
2.335E+01   3.302E+01  1.973E+00 
2.366E+01   3.324E+01  1.965E+00 
2.396E+01   3.345E+01  1.958E+00 
2.428E+01   3.367E+01  1.950E+00 
2.459E+01   3.389E+01  1.943E+00 
2.491E+01   3.411E+01  1.935E+00 
2.523E+01   3.433E+01  1.928E+00 
2.556E+01   3.455E+01  1.920E+00 
2.589E+01   3.477E+01  1.912E+00 
2.623E+01   3.500E+01  1.905E+00 
2.657E+01   3.522E+01  1.897E+00 
2.692E+01   3.544E+01  1.889E+00 
2.727E+01   3.567E+01  1.881E+00 
2.762E+01   3.590E+01  1.874E+00 
2.798E+01   3.613E+01  1.866E+00 
2.834E+01   3.635E+01  1.858E+00 
2.871E+01   3.659E+01  1.850E+00 
2.909E+01   3.682E+01  1.842E+00 
2.946E+01   3.705E+01  1.834E+00 
2.985E+01   3.728E+01  1.826E+00 
3.023E+01   3.752E+01  1.818E+00 
3.063E+01   3.775E+01  1.810E+00 
3.103E+01   3.799E+01  1.802E+00 
3.143E+01   3.823E+01  1.794E+00 
3.184E+01   3.847E+01  1.786E+00 
3.225E+01   3.871E+01  1.778E+00 
3.267E+01   3.896E+01  1.769E+00 
3.309E+01   3.920E+01  1.761E+00 
3.352E+01   3.945E+01  1.753E+00 
3.396E+01   3.970E+01  1.745E+00 
3.440E+01   3.995E+01  1.737E+00 
3.485E+01   4.020E+01  1.728E+00 
3.530E+01   4.045E+01  1.720E+00 
3.576E+01   4.071E+01  1.712E+00 
3.623E+01   4.096E+01  1.704E+00 
3.670E+01   4.122E+01  1.695E+00 
3.717E+01   4.148E+01  1.687E+00 
3.766E+01   4.174E+01  1.679E+00 
3.815E+01   4.201E+01  1.670E+00 
3.864E+01   4.228E+01  1.662E+00 
3.914E+01   4.255E+01  1.654E+00 
3.965E+01   4.282E+01  1.645E+00 
4.017E+01   4.309E+01  1.637E+00 
4.069E+01   4.337E+01  1.628E+00 
4.122E+01   4.364E+01  1.620E+00 
4.175E+01   4.392E+01  1.612E+00 
4.230E+01   4.421E+01  1.603E+00 
4.285E+01   4.449E+01  1.595E+00 
4.340E+01   4.478E+01  1.586E+00 
4.397E+01   4.507E+01  1.578E+00 
4.454E+01   4.536E+01  1.570E+00 
4.512E+01   4.566E+01  1.561E+00 
4.570E+01   4.595E+01  1.553E+00 
4.630E+01   4.625E+01  1.544E+00 
4.690E+01   4.656E+01  1.536E+00 
4.751E+01   4.686E+01  1.528E+00 
4.813E+01   4.717E+01  1.519E+00 
4.875E+01   4.748E+01  1.511E+00 
4.939E+01   4.780E+01  1.502E+00 
5.003E+01   4.811E+01  1.494E+00 
5.068E+01   4.843E+01  1.485E+00 
5.134E+01   4.875E+01  1.477E+00 
5.200E+01   4.908E+01  1.469E+00 
5.268E+01   4.940E+01  1.460E+00 
5.336E+01   4.973E+01  1.452E+00 
5.406E+01   5.007E+01  1.444E+00 
5.476E+01   5.040E+01  1.435E+00 
5.547E+01   5.074E+01  1.427E+00 
5.619E+01   5.108E+01  1.418E+00 
5.692E+01   5.142E+01  1.410E+00 
5.766E+01   5.177E+01  1.402E+00 
5.841E+01   5.212E+01  1.393E+00 
5.917E+01   5.247E+01  1.385E+00 
5.994E+01   5.283E+01  1.377E+00 
6.072E+01   5.319E+01  1.368E+00 
6.151E+01   5.355E+01  1.360E+00 
6.231E+01   5.391E+01  1.352E+00 
6.312E+01   5.428E+01  1.344E+00 
6.394E+01   5.464E+01  1.335E+00 
6.477E+01   5.502E+01  1.327E+00 
6.561E+01   5.539E+01  1.319E+00 
6.646E+01   5.577E+01  1.311E+00 
6.733E+01   5.615E+01  1.303E+00 
6.820E+01   5.653E+01  1.294E+00 
6.909E+01   5.692E+01  1.286E+00 
6.999E+01   5.730E+01  1.278E+00 
7.090E+01   5.769E+01  1.270E+00 
7.182E+01   5.809E+01  1.262E+00 
7.275E+01   5.848E+01  1.254E+00 
7.370E+01   5.888E+01  1.246E+00 
7.465E+01   5.929E+01  1.238E+00 
7.562E+01   5.969E+01  1.230E+00 
7.661E+01   6.010E+01  1.222E+00 
7.760E+01   6.051E+01  1.214E+00 
7.861E+01   6.092E+01  1.206E+00 
7.963E+01   6.133E+01  1.198E+00 
8.067E+01   6.175E+01  1.190E+00 
8.172E+01   6.217E+01  1.182E+00 
8.278E+01   6.259E+01  1.174E+00 
8.385E+01   6.302E+01  1.166E+00 
8.494E+01   6.345E+01  1.159E+00 
8.605E+01   6.388E+01  1.151E+00 
8.717E+01   6.431E+01  1.143E+00 
8.830E+01   6.475E+01  1.135E+00 
8.945E+01   6.519E+01  1.127E+00 
9.061E+01   6.563E+01  1.120E+00 
9.179E+01   6.607E+01  1.112E+00 
9.298E+01   6.652E+01  1.104E+00 
9.419E+01   6.696E+01  1.097E+00 
9.541E+01   6.741E+01  1.089E+00 
9.665E+01   6.787E+01  1.082E+00 
9.791E+01   6.832E+01  1.074E+00 
9.918E+01   6.878E+01  1.067E+00 
1.005E+02   6.924E+01  1.059E+00 
1.018E+02   6.970E+01  1.052E+00 
1.031E+02   7.017E+01  1.044E+00 
1.044E+02   7.063E+01  1.037E+00 
1.058E+02   7.110E+01  1.029E+00 
1.072E+02   7.158E+01  1.022E+00 
1.086E+02   7.205E+01  1.015E+00 
1.100E+02   7.253E+01  1.007E+00 
1.114E+02   7.300E+01  1.000E+00 
1.129E+02   7.349E+01  9.930E-01 
1.143E+02   7.397E+01  9.858E-01 
1.158E+02   7.445E+01  9.786E-01 
1.173E+02   7.494E+01  9.715E-01 
1.188E+02   7.543E+01  9.644E-01 
1.204E+02   7.592E+01  9.573E-01 
1.219E+02   7.641E+01  9.503E-01 
1.235E+02   7.691E+01  9.432E-01 
1.251E+02   7.740E+01  9.363E-01 
1.268E+02   7.790E+01  9.293E-01 
1.284E+02   7.840E+01  9.224E-01 
1.301E+02   7.891E+01  9.155E-01 
1.318E+02   7.941E+01  9.086E-01 
1.335E+02   7.992E+01  9.018E-01 
1.352E+02   8.042E+01  8.950E-01 
1.370E+02   8.093E+01  8.883E-01 
1.388E+02   8.145E+01  8.816E-01 
1.406E+02   8.196E+01  8.749E-01 
1.424E+02   8.247E+01  8.682E-01 
1.442E+02   8.299E+01  8.616E-01 
1.461E+02   8.351E+01  8.550E-01 
1.480E+02   8.403E+01  8.484E-01 
1.499E+02   8.455E+01  8.419E-01 
1.519E+02   8.507E+01  8.354E-01 
1.539E+02   8.559E+01  8.289E-01 
1.559E+02   8.612E+01  8.225E-01 
1.579E+02   8.664E+01  8.161E-01 
1.599E+02   8.717E+01  8.098E-01 
1.620E+02   8.770E+01  8.034E-01 
1.641E+02   8.823E+01  7.971E-01 
1.662E+02   8.876E+01  7.909E-01 
1.684E+02   8.929E+01  7.847E-01 
1.706E+02   8.982E+01  7.785E-01 
1.728E+02   9.035E+01  7.723E-01 
1.751E+02   9.089E+01  7.662E-01 
1.773E+02   9.142E+01  7.601E-01 
1.796E+02   9.195E+01  7.541E-01 
1.820E+02   9.249E+01  7.480E-01 
1.843E+02   9.303E+01  7.420E-01 
1.867E+02   9.356E+01  7.361E-01 
1.892E+02   9.410E+01  7.302E-01 
1.916E+02   9.464E+01  7.243E-01 
1.941E+02   9.518E+01  7.185E-01 
1.966E+02   9.571E+01  7.126E-01 
1.992E+02   9.625E+01  7.069E-01 
2.018E+02   9.679E+01  7.011E-01 
2.044E+02   9.733E+01  6.954E-01 
2.071E+02   9.787E+01  6.897E-01 
2.097E+02   9.841E+01  6.841E-01 
2.125E+02   9.894E+01  6.785E-01 
2.152E+02   9.948E+01  6.729E-01 
2.180E+02   1.000E+02  6.674E-01 
2.209E+02   1.006E+02  6.619E-01 
2.237E+02   1.011E+02  6.564E-01 
2.266E+02   1.016E+02  6.509E-01 
2.296E+02   1.022E+02  6.455E-01 
2.326E+02   1.027E+02  6.402E-01 
2.356E+02   1.032E+02  6.348E-01 
2.387E+02   1.038E+02  6.295E-01 
2.418E+02   1.043E+02  6.243E-01 
2.449E+02   1.048E+02  6.190E-01 
2.481E+02   1.054E+02  6.138E-01 
2.513E+02   1.059E+02  6.087E-01 
2.546E+02   1.064E+02  6.035E-01 
2.579E+02   1.069E+02  5.984E-01 
2.612E+02   1.075E+02  5.934E-01 
2.646E+02   1.080E+02  5.883E-01 
2.681E+02   1.085E+02  5.833E-01 
2.716E+02   1.090E+02  5.784E-01 
2.751E+02   1.095E+02  5.734E-01 
2.787E+02   1.100E+02  5.685E-01 
2.823E+02   1.106E+02  5.637E-01 
2.859E+02   1.111E+02  5.588E-01 
2.897E+02   1.116E+02  5.540E-01 
2.934E+02   1.121E+02  5.493E-01 
2.972E+02   1.126E+02  5.445E-01 
3.011E+02   1.131E+02  5.398E-01 
3.050E+02   1.136E+02  5.352E-01 
3.090E+02   1.141E+02  5.305E-01 
3.130E+02   1.146E+02  5.259E-01 
3.171E+02   1.150E+02  5.214E-01 
3.212E+02   1.155E+02  5.168E-01 
3.254E+02   1.160E+02  5.123E-01 
3.296E+02   1.165E+02  5.078E-01 
3.339E+02   1.170E+02  5.034E-01 
3.382E+02   1.174E+02  4.990E-01 
3.426E+02   1.179E+02  4.946E-01 
3.471E+02   1.183E+02  4.902E-01 
3.516E+02   1.188E+02  4.859E-01 
3.561E+02   1.193E+02  4.816E-01 
3.608E+02   1.197E+02  4.774E-01 
3.655E+02   1.202E+02  4.731E-01 
3.702E+02   1.206E+02  4.690E-01 
3.750E+02   1.210E+02  4.648E-01 
3.799E+02   1.215E+02  4.607E-01 
3.848E+02   1.219E+02  4.565E-01 
3.898E+02   1.223E+02  4.525E-01 
3.949E+02   1.227E+02  4.484E-01 
4.000E+02   1.231E+02  4.444E-01 
4.052E+02   1.235E+02  4.404E-01 
4.105E+02   1.239E+02  4.365E-01 
4.158E+02   1.243E+02  4.326E-01 
4.212E+02   1.247E+02  4.287E-01 
4.267E+02   1.251E+02  4.248E-01 
4.323E+02   1.255E+02  4.210E-01 
4.379E+02   1.258E+02  4.172E-01 
4.436E+02   1.262E+02  4.134E-01 
4.493E+02   1.266E+02  4.096E-01 
4.552E+02   1.269E+02  4.059E-01 
4.611E+02   1.273E+02  4.012E-01 
4.671E+02   1.276E+02  3.975E-01 
4.731E+02   1.279E+02  3.939E-01 
4.793E+02   1.283E+02  3.903E-01 
4.855E+02   1.286E+02  3.867E-01 
4.918E+02   1.289E+02  3.832E-01 
4.982E+02   1.292E+02  3.797E-01 
5.047E+02   1.295E+02  3.762E-01 
5.113E+02   1.298E+02  3.727E-01 
5.179E+02   1.301E+02  3.693E-01 
5.246E+02   1.303E+02  3.659E-01 
5.315E+02   1.306E+02  3.625E-01 
5.384E+02   1.309E+02  3.592E-01 
5.454E+02   1.311E+02  3.559E-01 
5.524E+02   1.314E+02  3.526E-01 
5.596E+02   1.316E+02  3.493E-01 
5.669E+02   1.318E+02  3.460E-01 
5.743E+02   1.321E+02  3.428E-01 
5.817E+02   1.323E+02  3.396E-01 
5.893E+02   1.325E+02  3.365E-01 
5.969E+02   1.327E+02  3.333E-01 
6.047E+02   1.329E+02  3.302E-01 
6.126E+02   1.330E+02  3.271E-01 
6.205E+02   1.332E+02  3.240E-01 
6.286E+02   1.334E+02  3.210E-01 
6.368E+02   1.335E+02  3.180E-01 
6.450E+02   1.337E+02  3.150E-01 
6.534E+02   1.338E+02  3.120E-01 
6.619E+02   1.339E+02  3.091E-01 
6.705E+02   1.341E+02  3.061E-01 
6.792E+02   1.342E+02  3.033E-01 
6.881E+02   1.343E+02  3.004E-01 
6.970E+02   1.344E+02  2.975E-01 
7.061E+02   1.345E+02  2.947E-01 
7.152E+02   1.345E+02  2.919E-01 
7.245E+02   1.346E+02  2.891E-01 
7.339E+02   1.347E+02  2.864E-01 
7.435E+02   1.347E+02  2.836E-01 
7.531E+02   1.347E+02  2.809E-01 
7.629E+02   1.348E+02  2.782E-01 
7.728E+02   1.348E+02  2.756E-01 
7.829E+02   1.348E+02  2.729E-01 
7.931E+02   1.348E+02  2.703E-01 
8.034E+02   1.348E+02  2.677E-01 
8.138E+02   1.348E+02  2.651E-01 
8.244E+02   1.348E+02  2.626E-01 
8.351E+02   1.347E+02  2.601E-01 
8.460E+02   1.347E+02  2.576E-01 
8.570E+02   1.346E+02  2.551E-01 
8.681E+02   1.346E+02  2.526E-01 
8.794E+02   1.345E+02  2.502E-01 
8.908E+02   1.344E+02  2.477E-01 
9.024E+02   1.343E+02  2.453E-01 
9.141E+02   1.342E+02  2.430E-01 
9.260E+02   1.341E+02  2.406E-01 
9.380E+02   1.340E+02  2.383E-01 
9.502E+02   1.339E+02  2.359E-01 
9.626E+02   1.338E+02  2.336E-01 
9.751E+02   1.336E+02  2.314E-01 
9.877E+02   1.335E+02  2.291E-01 
1.001E+03   1.333E+02  2.269E-01 
1.014E+03   1.331E+02  2.246E-01 
1.027E+03   1.330E+02  2.224E-01 
1.040E+03   1.328E+02  2.203E-01 
1.054E+03   1.326E+02  2.181E-01 
1.067E+03   1.324E+02  2.160E-01 
1.081E+03   1.322E+02  2.138E-01 
1.095E+03   1.320E+02  2.117E-01 
1.109E+03   1.317E+02  2.096E-01 
1.124E+03   1.315E+02  2.076E-01 
1.138E+03   1.312E+02  2.055E-01 
1.153E+03   1.310E+02  2.035E-01 
1.168E+03   1.307E+02  2.015E-01 
1.183E+03   1.305E+02  1.995E-01 
1.199E+03   1.302E+02  1.975E-01 
1.214E+03   1.299E+02  1.956E-01 
1.230E+03   1.296E+02  1.936E-01 
1.246E+03   1.293E+02  1.917E-01 
1.262E+03   1.290E+02  1.898E-01 
1.279E+03   1.287E+02  1.879E-01 
1.295E+03   1.284E+02  1.860E-01 
1.312E+03   1.281E+02  1.842E-01 
1.329E+03   1.277E+02  1.823E-01 
1.347E+03   1.274E+02  1.805E-01 
1.364E+03   1.270E+02  1.787E-01 
1.382E+03   1.267E+02  1.769E-01 
1.400E+03   1.263E+02  1.752E-01 
1.418E+03   1.259E+02  1.734E-01 
1.436E+03   1.256E+02  1.717E-01 
1.455E+03   1.252E+02  1.700E-01 
1.474E+03   1.248E+02  1.683E-01 
1.493E+03   1.244E+02  1.666E-01 
1.513E+03   1.240E+02  1.649E-01 
1.532E+03   1.236E+02  1.632E-01 
1.552E+03   1.232E+02  1.616E-01 
1.572E+03   1.227E+02  1.600E-01 
1.593E+03   1.223E+02  1.583E-01 
1.613E+03   1.219E+02  1.568E-01 
1.634E+03   1.215E+02  1.552E-01 
1.656E+03   1.210E+02  1.536E-01 
1.677E+03   1.206E+02  1.520E-01 
1.699E+03   1.201E+02  1.505E-01 
1.721E+03   1.197E+02  1.490E-01 
1.743E+03   1.192E+02  1.475E-01 
1.766E+03   1.187E+02  1.460E-01 
1.789E+03   1.183E+02  1.445E-01 
1.812E+03   1.178E+02  1.430E-01 
1.836E+03   1.173E+02  1.416E-01 
1.860E+03   1.168E+02  1.401E-01 
