Ion = Helium      . Mass = 4.0026
Tgt = Ca (Solid). Density = 1.54 g/cm3
Stopping Units =  eV/(1E15 atoms/cm2)
Energy(keV)  S(Elec)    S(Nuc)
1.000E+00   3.055E+00  3.646E+00 
1.013E+00   3.075E+00  3.649E+00 
1.026E+00   3.094E+00  3.651E+00 
1.039E+00   3.115E+00  3.653E+00 
1.053E+00   3.135E+00  3.656E+00 
1.067E+00   3.155E+00  3.658E+00 
1.081E+00   3.175E+00  3.660E+00 
1.095E+00   3.196E+00  3.662E+00 
1.109E+00   3.217E+00  3.664E+00 
1.123E+00   3.238E+00  3.665E+00 
1.138E+00   3.259E+00  3.667E+00 
1.153E+00   3.280E+00  3.669E+00 
1.168E+00   3.301E+00  3.670E+00 
1.183E+00   3.322E+00  3.671E+00 
1.198E+00   3.344E+00  3.673E+00 
1.214E+00   3.365E+00  3.674E+00 
1.229E+00   3.387E+00  3.675E+00 
1.245E+00   3.409E+00  3.676E+00 
1.262E+00   3.431E+00  3.677E+00 
1.278E+00   3.453E+00  3.677E+00 
1.295E+00   3.476E+00  3.678E+00 
1.311E+00   3.498E+00  3.678E+00 
1.329E+00   3.521E+00  3.679E+00 
1.346E+00   3.544E+00  3.679E+00 
1.363E+00   3.567E+00  3.679E+00 
1.381E+00   3.590E+00  3.679E+00 
1.399E+00   3.613E+00  3.679E+00 
1.417E+00   3.637E+00  3.679E+00 
1.436E+00   3.660E+00  3.679E+00 
1.454E+00   3.684E+00  3.679E+00 
1.473E+00   3.708E+00  3.678E+00 
1.492E+00   3.732E+00  3.678E+00 
1.512E+00   3.756E+00  3.677E+00 
1.531E+00   3.780E+00  3.676E+00 
1.551E+00   3.805E+00  3.675E+00 
1.571E+00   3.829E+00  3.674E+00 
1.592E+00   3.854E+00  3.673E+00 
1.612E+00   3.879E+00  3.672E+00 
1.633E+00   3.904E+00  3.670E+00 
1.655E+00   3.929E+00  3.669E+00 
1.676E+00   3.955E+00  3.667E+00 
1.698E+00   3.981E+00  3.666E+00 
1.720E+00   4.006E+00  3.664E+00 
1.742E+00   4.032E+00  3.662E+00 
1.765E+00   4.058E+00  3.660E+00 
1.788E+00   4.085E+00  3.658E+00 
1.811E+00   4.111E+00  3.655E+00 
1.835E+00   4.138E+00  3.653E+00 
1.859E+00   4.165E+00  3.651E+00 
1.883E+00   4.192E+00  3.648E+00 
1.907E+00   4.219E+00  3.645E+00 
1.932E+00   4.246E+00  3.642E+00 
1.957E+00   4.274E+00  3.640E+00 
1.983E+00   4.301E+00  3.636E+00 
2.008E+00   4.329E+00  3.633E+00 
2.034E+00   4.357E+00  3.630E+00 
2.061E+00   4.385E+00  3.627E+00 
2.088E+00   4.414E+00  3.623E+00 
2.115E+00   4.442E+00  3.620E+00 
2.142E+00   4.471E+00  3.616E+00 
2.170E+00   4.500E+00  3.612E+00 
2.198E+00   4.529E+00  3.608E+00 
2.227E+00   4.559E+00  3.604E+00 
2.256E+00   4.588E+00  3.600E+00 
2.285E+00   4.618E+00  3.595E+00 
2.315E+00   4.648E+00  3.591E+00 
2.345E+00   4.678E+00  3.586E+00 
2.375E+00   4.708E+00  3.582E+00 
2.406E+00   4.739E+00  3.577E+00 
2.438E+00   4.769E+00  3.572E+00 
2.469E+00   4.800E+00  3.567E+00 
2.501E+00   4.831E+00  3.562E+00 
2.534E+00   4.863E+00  3.557E+00 
2.567E+00   4.894E+00  3.552E+00 
2.600E+00   4.926E+00  3.546E+00 
2.634E+00   4.958E+00  3.541E+00 
2.668E+00   4.990E+00  3.535E+00 
2.703E+00   5.022E+00  3.529E+00 
2.738E+00   5.055E+00  3.524E+00 
2.773E+00   5.087E+00  3.518E+00 
2.810E+00   5.120E+00  3.512E+00 
2.846E+00   5.153E+00  3.505E+00 
2.883E+00   5.187E+00  3.499E+00 
2.921E+00   5.220E+00  3.493E+00 
2.958E+00   5.254E+00  3.486E+00 
2.997E+00   5.288E+00  3.480E+00 
3.036E+00   5.323E+00  3.473E+00 
3.075E+00   5.357E+00  3.466E+00 
3.115E+00   5.392E+00  3.459E+00 
3.156E+00   5.427E+00  3.452E+00 
3.197E+00   5.462E+00  3.445E+00 
3.238E+00   5.497E+00  3.438E+00 
3.280E+00   5.533E+00  3.430E+00 
3.323E+00   5.569E+00  3.423E+00 
3.366E+00   5.605E+00  3.415E+00 
3.410E+00   5.641E+00  3.408E+00 
3.454E+00   5.678E+00  3.400E+00 
3.499E+00   5.714E+00  3.392E+00 
3.545E+00   5.751E+00  3.384E+00 
3.591E+00   5.789E+00  3.376E+00 
3.637E+00   5.826E+00  3.368E+00 
3.685E+00   5.864E+00  3.360E+00 
3.733E+00   5.902E+00  3.352E+00 
3.781E+00   5.940E+00  3.343E+00 
3.830E+00   5.979E+00  3.335E+00 
3.880E+00   6.017E+00  3.326E+00 
3.930E+00   6.056E+00  3.317E+00 
3.982E+00   6.095E+00  3.309E+00 
4.033E+00   6.135E+00  3.300E+00 
4.086E+00   6.175E+00  3.291E+00 
4.139E+00   6.215E+00  3.282E+00 
4.193E+00   6.255E+00  3.273E+00 
4.247E+00   6.295E+00  3.263E+00 
4.302E+00   6.336E+00  3.254E+00 
4.358E+00   6.377E+00  3.245E+00 
4.415E+00   6.419E+00  3.235E+00 
4.472E+00   6.460E+00  3.225E+00 
4.530E+00   6.502E+00  3.216E+00 
4.589E+00   6.544E+00  3.206E+00 
4.649E+00   6.586E+00  3.196E+00 
4.709E+00   6.629E+00  3.186E+00 
4.770E+00   6.672E+00  3.176E+00 
4.832E+00   6.715E+00  3.166E+00 
4.895E+00   6.759E+00  3.156E+00 
4.959E+00   6.803E+00  3.146E+00 
5.023E+00   6.847E+00  3.136E+00 
5.089E+00   6.891E+00  3.125E+00 
5.155E+00   6.936E+00  3.115E+00 
5.222E+00   6.981E+00  3.104E+00 
5.290E+00   7.026E+00  3.094E+00 
5.358E+00   7.071E+00  3.083E+00 
5.428E+00   7.117E+00  3.072E+00 
5.499E+00   7.163E+00  3.062E+00 
5.570E+00   7.210E+00  3.051E+00 
5.642E+00   7.256E+00  3.040E+00 
5.716E+00   7.303E+00  3.029E+00 
5.790E+00   7.351E+00  3.018E+00 
5.865E+00   7.398E+00  3.007E+00 
5.942E+00   7.446E+00  2.996E+00 
6.019E+00   7.494E+00  2.984E+00 
6.097E+00   7.543E+00  2.973E+00 
6.176E+00   7.592E+00  2.962E+00 
6.256E+00   7.641E+00  2.950E+00 
6.338E+00   7.690E+00  2.939E+00 
6.420E+00   7.740E+00  2.927E+00 
6.504E+00   7.790E+00  2.916E+00 
6.588E+00   7.841E+00  2.904E+00 
6.674E+00   7.892E+00  2.893E+00 
6.760E+00   7.943E+00  2.881E+00 
6.848E+00   7.994E+00  2.869E+00 
6.937E+00   8.046E+00  2.857E+00 
7.027E+00   8.098E+00  2.845E+00 
7.119E+00   8.150E+00  2.834E+00 
7.211E+00   8.203E+00  2.822E+00 
7.305E+00   8.256E+00  2.810E+00 
7.400E+00   8.310E+00  2.798E+00 
7.496E+00   8.364E+00  2.785E+00 
7.594E+00   8.418E+00  2.773E+00 
7.692E+00   8.472E+00  2.761E+00 
7.792E+00   8.527E+00  2.749E+00 
7.894E+00   8.583E+00  2.737E+00 
7.996E+00   8.638E+00  2.725E+00 
8.100E+00   8.699E+00  2.712E+00 
8.205E+00   8.761E+00  2.700E+00 
8.312E+00   8.824E+00  2.688E+00 
8.420E+00   8.887E+00  2.675E+00 
8.529E+00   8.951E+00  2.663E+00 
8.640E+00   9.015E+00  2.650E+00 
8.753E+00   9.080E+00  2.638E+00 
8.866E+00   9.146E+00  2.625E+00 
8.982E+00   9.212E+00  2.613E+00 
9.098E+00   9.279E+00  2.600E+00 
9.217E+00   9.346E+00  2.588E+00 
9.336E+00   9.414E+00  2.575E+00 
9.458E+00   9.483E+00  2.562E+00 
9.581E+00   9.552E+00  2.550E+00 
9.705E+00   9.622E+00  2.537E+00 
9.831E+00   9.692E+00  2.524E+00 
9.959E+00   9.764E+00  2.512E+00 
1.009E+01   9.836E+00  2.499E+00 
1.022E+01   9.908E+00  2.486E+00 
1.035E+01   9.981E+00  2.474E+00 
1.049E+01   1.006E+01  2.461E+00 
1.062E+01   1.013E+01  2.448E+00 
1.076E+01   1.020E+01  2.435E+00 
1.090E+01   1.028E+01  2.423E+00 
1.104E+01   1.036E+01  2.410E+00 
1.119E+01   1.043E+01  2.397E+00 
1.133E+01   1.051E+01  2.384E+00 
1.148E+01   1.059E+01  2.371E+00 
1.163E+01   1.067E+01  2.359E+00 
1.178E+01   1.075E+01  2.346E+00 
1.193E+01   1.083E+01  2.333E+00 
1.209E+01   1.091E+01  2.320E+00 
1.224E+01   1.100E+01  2.308E+00 
1.240E+01   1.108E+01  2.295E+00 
1.256E+01   1.116E+01  2.282E+00 
1.273E+01   1.125E+01  2.269E+00 
1.289E+01   1.133E+01  2.256E+00 
1.306E+01   1.142E+01  2.244E+00 
1.323E+01   1.151E+01  2.231E+00 
1.340E+01   1.160E+01  2.218E+00 
1.358E+01   1.168E+01  2.205E+00 
1.375E+01   1.177E+01  2.193E+00 
1.393E+01   1.186E+01  2.180E+00 
1.411E+01   1.196E+01  2.167E+00 
1.430E+01   1.205E+01  2.154E+00 
1.448E+01   1.214E+01  2.142E+00 
1.467E+01   1.223E+01  2.129E+00 
1.486E+01   1.233E+01  2.116E+00 
1.505E+01   1.242E+01  2.104E+00 
1.525E+01   1.252E+01  2.091E+00 
1.545E+01   1.262E+01  2.079E+00 
1.565E+01   1.272E+01  2.066E+00 
1.585E+01   1.281E+01  2.053E+00 
1.606E+01   1.291E+01  2.041E+00 
1.627E+01   1.302E+01  2.028E+00 
1.648E+01   1.312E+01  2.016E+00 
1.669E+01   1.322E+01  2.003E+00 
1.691E+01   1.332E+01  1.991E+00 
1.713E+01   1.343E+01  1.978E+00 
1.735E+01   1.353E+01  1.966E+00 
1.758E+01   1.364E+01  1.954E+00 
1.781E+01   1.375E+01  1.941E+00 
1.804E+01   1.386E+01  1.929E+00 
1.827E+01   1.397E+01  1.917E+00 
1.851E+01   1.408E+01  1.904E+00 
1.875E+01   1.419E+01  1.892E+00 
1.899E+01   1.430E+01  1.880E+00 
1.924E+01   1.441E+01  1.868E+00 
1.949E+01   1.453E+01  1.855E+00 
1.974E+01   1.464E+01  1.843E+00 
2.000E+01   1.476E+01  1.831E+00 
2.026E+01   1.488E+01  1.819E+00 
2.052E+01   1.500E+01  1.807E+00 
2.079E+01   1.512E+01  1.795E+00 
2.106E+01   1.524E+01  1.783E+00 
2.133E+01   1.536E+01  1.771E+00 
2.161E+01   1.548E+01  1.759E+00 
2.189E+01   1.561E+01  1.747E+00 
2.218E+01   1.573E+01  1.736E+00 
2.247E+01   1.586E+01  1.724E+00 
2.276E+01   1.599E+01  1.712E+00 
2.305E+01   1.611E+01  1.700E+00 
2.335E+01   1.624E+01  1.689E+00 
2.366E+01   1.638E+01  1.677E+00 
2.396E+01   1.651E+01  1.666E+00 
2.428E+01   1.664E+01  1.654E+00 
2.459E+01   1.678E+01  1.642E+00 
2.491E+01   1.691E+01  1.631E+00 
2.523E+01   1.705E+01  1.620E+00 
2.556E+01   1.719E+01  1.608E+00 
2.589E+01   1.733E+01  1.597E+00 
2.623E+01   1.747E+01  1.586E+00 
2.657E+01   1.761E+01  1.574E+00 
2.692E+01   1.775E+01  1.563E+00 
2.727E+01   1.790E+01  1.552E+00 
2.762E+01   1.804E+01  1.541E+00 
2.798E+01   1.819E+01  1.530E+00 
2.834E+01   1.834E+01  1.519E+00 
2.871E+01   1.849E+01  1.508E+00 
2.909E+01   1.864E+01  1.497E+00 
2.946E+01   1.879E+01  1.486E+00 
2.985E+01   1.895E+01  1.475E+00 
3.023E+01   1.910E+01  1.464E+00 
3.063E+01   1.926E+01  1.453E+00 
3.103E+01   1.942E+01  1.443E+00 
3.143E+01   1.958E+01  1.432E+00 
3.184E+01   1.974E+01  1.421E+00 
3.225E+01   1.990E+01  1.411E+00 
3.267E+01   2.006E+01  1.400E+00 
3.309E+01   2.023E+01  1.390E+00 
3.352E+01   2.039E+01  1.379E+00 
3.396E+01   2.056E+01  1.369E+00 
3.440E+01   2.073E+01  1.359E+00 
3.485E+01   2.090E+01  1.348E+00 
3.530E+01   2.107E+01  1.338E+00 
3.576E+01   2.125E+01  1.328E+00 
3.623E+01   2.142E+01  1.318E+00 
3.670E+01   2.160E+01  1.308E+00 
3.717E+01   2.177E+01  1.298E+00 
3.766E+01   2.195E+01  1.288E+00 
3.815E+01   2.214E+01  1.278E+00 
3.864E+01   2.232E+01  1.268E+00 
3.914E+01   2.250E+01  1.258E+00 
3.965E+01   2.269E+01  1.249E+00 
4.017E+01   2.287E+01  1.239E+00 
4.069E+01   2.306E+01  1.229E+00 
4.122E+01   2.325E+01  1.220E+00 
4.175E+01   2.345E+01  1.210E+00 
4.230E+01   2.364E+01  1.200E+00 
4.285E+01   2.383E+01  1.191E+00 
4.340E+01   2.403E+01  1.182E+00 
4.397E+01   2.423E+01  1.172E+00 
4.454E+01   2.443E+01  1.163E+00 
4.512E+01   2.463E+01  1.154E+00 
4.570E+01   2.483E+01  1.145E+00 
4.630E+01   2.504E+01  1.135E+00 
4.690E+01   2.524E+01  1.126E+00 
4.751E+01   2.545E+01  1.117E+00 
4.813E+01   2.566E+01  1.108E+00 
4.875E+01   2.587E+01  1.099E+00 
4.939E+01   2.609E+01  1.090E+00 
5.003E+01   2.630E+01  1.082E+00 
5.068E+01   2.652E+01  1.073E+00 
5.134E+01   2.674E+01  1.064E+00 
5.200E+01   2.695E+01  1.055E+00 
5.268E+01   2.718E+01  1.047E+00 
5.336E+01   2.740E+01  1.038E+00 
5.406E+01   2.762E+01  1.030E+00 
5.476E+01   2.785E+01  1.021E+00 
5.547E+01   2.808E+01  1.013E+00 
5.619E+01   2.831E+01  1.004E+00 
5.692E+01   2.854E+01  9.961E-01 
5.766E+01   2.877E+01  9.879E-01 
5.841E+01   2.901E+01  9.796E-01 
5.917E+01   2.925E+01  9.715E-01 
5.994E+01   2.949E+01  9.634E-01 
6.072E+01   2.973E+01  9.553E-01 
6.151E+01   2.997E+01  9.473E-01 
6.231E+01   3.021E+01  9.394E-01 
6.312E+01   3.046E+01  9.315E-01 
6.394E+01   3.071E+01  9.236E-01 
6.477E+01   3.095E+01  9.158E-01 
6.561E+01   3.121E+01  9.081E-01 
6.646E+01   3.146E+01  9.004E-01 
6.733E+01   3.171E+01  8.927E-01 
6.820E+01   3.197E+01  8.851E-01 
6.909E+01   3.223E+01  8.776E-01 
6.999E+01   3.249E+01  8.701E-01 
7.090E+01   3.275E+01  8.627E-01 
7.182E+01   3.301E+01  8.553E-01 
7.275E+01   3.328E+01  8.479E-01 
7.370E+01   3.354E+01  8.406E-01 
7.465E+01   3.381E+01  8.334E-01 
7.562E+01   3.408E+01  8.262E-01 
7.661E+01   3.436E+01  8.191E-01 
7.760E+01   3.463E+01  8.120E-01 
7.861E+01   3.491E+01  8.049E-01 
7.963E+01   3.518E+01  7.979E-01 
8.067E+01   3.546E+01  7.910E-01 
8.172E+01   3.574E+01  7.841E-01 
8.278E+01   3.603E+01  7.773E-01 
8.385E+01   3.631E+01  7.705E-01 
8.494E+01   3.660E+01  7.637E-01 
8.605E+01   3.688E+01  7.570E-01 
8.717E+01   3.717E+01  7.503E-01 
8.830E+01   3.747E+01  7.437E-01 
8.945E+01   3.776E+01  7.372E-01 
9.061E+01   3.805E+01  7.307E-01 
9.179E+01   3.835E+01  7.242E-01 
9.298E+01   3.865E+01  7.178E-01 
9.419E+01   3.895E+01  7.114E-01 
9.541E+01   3.925E+01  7.051E-01 
9.665E+01   3.955E+01  6.988E-01 
9.791E+01   3.986E+01  6.926E-01 
9.918E+01   4.016E+01  6.864E-01 
1.005E+02   4.047E+01  6.803E-01 
1.018E+02   4.078E+01  6.742E-01 
1.031E+02   4.109E+01  6.681E-01 
1.044E+02   4.141E+01  6.621E-01 
1.058E+02   4.172E+01  6.562E-01 
1.072E+02   4.204E+01  6.503E-01 
1.086E+02   4.235E+01  6.444E-01 
1.100E+02   4.267E+01  6.386E-01 
1.114E+02   4.299E+01  6.328E-01 
1.129E+02   4.332E+01  6.270E-01 
1.143E+02   4.364E+01  6.214E-01 
1.158E+02   4.397E+01  6.157E-01 
1.173E+02   4.429E+01  6.101E-01 
1.188E+02   4.462E+01  6.046E-01 
1.204E+02   4.495E+01  5.990E-01 
1.219E+02   4.528E+01  5.936E-01 
1.235E+02   4.561E+01  5.881E-01 
1.251E+02   4.595E+01  5.827E-01 
1.268E+02   4.628E+01  5.774E-01 
1.284E+02   4.662E+01  5.505E-01 
1.301E+02   4.696E+01  5.455E-01 
1.318E+02   4.729E+01  5.405E-01 
1.335E+02   4.763E+01  5.356E-01 
1.352E+02   4.798E+01  5.307E-01 
1.370E+02   4.832E+01  5.259E-01 
1.388E+02   4.866E+01  5.211E-01 
1.406E+02   4.901E+01  5.163E-01 
1.424E+02   4.935E+01  5.115E-01 
1.442E+02   4.970E+01  5.068E-01 
1.461E+02   5.005E+01  5.022E-01 
1.480E+02   5.040E+01  4.975E-01 
1.499E+02   5.075E+01  4.929E-01 
1.519E+02   5.110E+01  4.884E-01 
1.539E+02   5.145E+01  4.839E-01 
1.559E+02   5.180E+01  4.794E-01 
1.579E+02   5.216E+01  4.749E-01 
1.599E+02   5.251E+01  4.705E-01 
1.620E+02   5.287E+01  4.661E-01 
1.641E+02   5.322E+01  4.618E-01 
1.662E+02   5.358E+01  4.575E-01 
1.684E+02   5.394E+01  4.532E-01 
1.706E+02   5.429E+01  4.490E-01 
1.728E+02   5.465E+01  4.448E-01 
1.751E+02   5.501E+01  4.406E-01 
1.773E+02   5.537E+01  4.364E-01 
1.796E+02   5.573E+01  4.323E-01 
1.820E+02   5.609E+01  4.283E-01 
1.843E+02   5.645E+01  4.242E-01 
1.867E+02   5.681E+01  4.202E-01 
1.892E+02   5.717E+01  4.162E-01 
1.916E+02   5.753E+01  4.123E-01 
1.941E+02   5.790E+01  4.084E-01 
1.966E+02   5.826E+01  4.045E-01 
1.992E+02   5.862E+01  4.007E-01 
2.018E+02   5.898E+01  3.969E-01 
2.044E+02   5.934E+01  3.931E-01 
2.071E+02   5.970E+01  3.893E-01 
2.097E+02   6.006E+01  3.856E-01 
2.125E+02   6.042E+01  3.819E-01 
2.152E+02   6.078E+01  3.783E-01 
2.180E+02   6.114E+01  3.747E-01 
2.209E+02   6.150E+01  3.711E-01 
2.237E+02   6.186E+01  3.675E-01 
2.266E+02   6.222E+01  3.640E-01 
2.296E+02   6.257E+01  3.605E-01 
2.326E+02   6.293E+01  3.570E-01 
2.356E+02   6.328E+01  3.536E-01 
2.387E+02   6.364E+01  3.502E-01 
2.418E+02   6.399E+01  3.468E-01 
2.449E+02   6.434E+01  3.434E-01 
2.481E+02   6.470E+01  3.401E-01 
2.513E+02   6.505E+01  3.368E-01 
2.546E+02   6.539E+01  3.335E-01 
2.579E+02   6.574E+01  3.303E-01 
2.612E+02   6.609E+01  3.271E-01 
2.646E+02   6.643E+01  3.239E-01 
2.681E+02   6.677E+01  3.208E-01 
2.716E+02   6.711E+01  3.176E-01 
2.751E+02   6.745E+01  3.145E-01 
2.787E+02   6.779E+01  3.115E-01 
2.823E+02   6.813E+01  3.084E-01 
2.859E+02   6.846E+01  3.054E-01 
2.897E+02   6.879E+01  3.024E-01 
2.934E+02   6.912E+01  2.994E-01 
2.972E+02   6.945E+01  2.965E-01 
3.011E+02   6.977E+01  2.936E-01 
3.050E+02   7.009E+01  2.907E-01 
3.090E+02   7.041E+01  2.878E-01 
3.130E+02   7.073E+01  2.850E-01 
3.171E+02   7.104E+01  2.822E-01 
3.212E+02   7.135E+01  2.794E-01 
3.254E+02   7.166E+01  2.766E-01 
3.296E+02   7.197E+01  2.739E-01 
3.339E+02   7.227E+01  2.712E-01 
3.382E+02   7.257E+01  2.685E-01 
3.426E+02   7.286E+01  2.658E-01 
3.471E+02   7.316E+01  2.632E-01 
3.516E+02   7.345E+01  2.606E-01 
3.561E+02   7.373E+01  2.580E-01 
3.608E+02   7.401E+01  2.554E-01 
3.655E+02   7.429E+01  2.529E-01 
3.702E+02   7.456E+01  2.504E-01 
3.750E+02   7.484E+01  2.479E-01 
3.799E+02   7.510E+01  2.454E-01 
3.848E+02   7.536E+01  2.430E-01 
3.898E+02   7.562E+01  2.405E-01 
3.949E+02   7.588E+01  2.381E-01 
4.000E+02   7.613E+01  2.357E-01 
4.052E+02   7.637E+01  2.334E-01 
4.105E+02   7.661E+01  2.310E-01 
4.158E+02   7.685E+01  2.287E-01 
4.212E+02   7.708E+01  2.264E-01 
4.267E+02   7.731E+01  2.241E-01 
4.323E+02   7.753E+01  2.219E-01 
4.379E+02   7.774E+01  2.197E-01 
4.436E+02   7.796E+01  2.174E-01 
4.493E+02   7.816E+01  2.152E-01 
4.552E+02   7.837E+01  2.131E-01 
4.611E+02   7.856E+01  2.109E-01 
4.671E+02   7.875E+01  2.088E-01 
4.731E+02   7.894E+01  2.067E-01 
4.793E+02   7.912E+01  2.046E-01 
4.855E+02   7.930E+01  2.025E-01 
4.918E+02   7.947E+01  2.005E-01 
4.982E+02   7.963E+01  1.984E-01 
5.047E+02   7.979E+01  1.964E-01 
5.113E+02   7.994E+01  1.944E-01 
5.179E+02   8.009E+01  1.924E-01 
5.246E+02   8.023E+01  1.905E-01 
5.315E+02   8.036E+01  1.886E-01 
5.384E+02   8.049E+01  1.866E-01 
5.454E+02   8.062E+01  1.847E-01 
5.524E+02   8.073E+01  1.828E-01 
5.596E+02   8.084E+01  1.810E-01 
5.669E+02   8.095E+01  1.791E-01 
5.743E+02   8.105E+01  1.773E-01 
5.817E+02   8.114E+01  1.755E-01 
5.893E+02   8.123E+01  1.737E-01 
5.969E+02   8.131E+01  1.719E-01 
6.047E+02   8.138E+01  1.701E-01 
6.126E+02   8.145E+01  1.684E-01 
6.205E+02   8.151E+01  1.667E-01 
6.286E+02   8.156E+01  1.650E-01 
6.368E+02   8.161E+01  1.633E-01 
6.450E+02   8.165E+01  1.616E-01 
6.534E+02   8.169E+01  1.599E-01 
6.619E+02   8.172E+01  1.583E-01 
6.705E+02   8.174E+01  1.567E-01 
6.792E+02   8.175E+01  1.550E-01 
6.881E+02   8.176E+01  1.534E-01 
6.970E+02   8.177E+01  1.519E-01 
7.061E+02   8.176E+01  1.503E-01 
7.152E+02   8.175E+01  1.487E-01 
7.245E+02   8.173E+01  1.472E-01 
7.339E+02   8.171E+01  1.457E-01 
7.435E+02   8.168E+01  1.442E-01 
7.531E+02   8.164E+01  1.427E-01 
7.629E+02   8.160E+01  1.412E-01 
7.728E+02   8.155E+01  1.397E-01 
7.829E+02   8.150E+01  1.383E-01 
7.931E+02   8.143E+01  1.368E-01 
8.034E+02   8.137E+01  1.354E-01 
8.138E+02   8.129E+01  1.340E-01 
8.244E+02   8.121E+01  1.326E-01 
8.351E+02   8.112E+01  1.312E-01 
8.460E+02   8.103E+01  1.299E-01 
8.570E+02   8.093E+01  1.285E-01 
8.681E+02   8.082E+01  1.272E-01 
8.794E+02   8.071E+01  1.259E-01 
8.908E+02   8.059E+01  1.245E-01 
9.024E+02   8.047E+01  1.232E-01 
9.141E+02   8.034E+01  1.220E-01 
9.260E+02   8.020E+01  1.207E-01 
9.380E+02   8.006E+01  1.194E-01 
9.502E+02   7.991E+01  1.182E-01 
9.626E+02   7.975E+01  1.169E-01 
9.751E+02   7.959E+01  1.157E-01 
9.877E+02   7.943E+01  1.145E-01 
1.001E+03   7.926E+01  1.133E-01 
1.014E+03   7.908E+01  1.121E-01 
1.027E+03   7.890E+01  1.109E-01 
1.040E+03   7.871E+01  1.098E-01 
1.054E+03   7.852E+01  1.086E-01 
1.067E+03   7.832E+01  1.075E-01 
1.081E+03   7.811E+01  1.063E-01 
1.095E+03   7.791E+01  1.052E-01 
1.109E+03   7.769E+01  1.041E-01 
1.124E+03   7.747E+01  1.030E-01 
1.138E+03   7.725E+01  1.019E-01 
1.153E+03   7.702E+01  1.008E-01 
1.168E+03   7.679E+01  9.978E-02 
1.183E+03   7.655E+01  9.873E-02 
1.199E+03   7.631E+01  9.769E-02 
1.214E+03   7.606E+01  9.665E-02 
1.230E+03   7.581E+01  9.563E-02 
1.246E+03   7.555E+01  9.462E-02 
1.262E+03   7.529E+01  9.362E-02 
1.279E+03   7.503E+01  9.263E-02 
1.295E+03   7.476E+01  9.165E-02 
1.312E+03   7.449E+01  9.068E-02 
1.329E+03   7.421E+01  8.971E-02 
1.347E+03   7.393E+01  8.876E-02 
1.364E+03   7.364E+01  8.782E-02 
1.382E+03   7.336E+01  8.689E-02 
1.400E+03   7.306E+01  8.597E-02 
1.418E+03   7.277E+01  8.505E-02 
1.436E+03   7.247E+01  8.415E-02 
1.455E+03   7.217E+01  8.325E-02 
1.474E+03   7.186E+01  8.237E-02 
1.493E+03   7.156E+01  8.149E-02 
1.513E+03   7.125E+01  8.062E-02 
1.532E+03   7.093E+01  7.976E-02 
1.552E+03   7.061E+01  7.891E-02 
1.572E+03   7.030E+01  7.807E-02 
1.593E+03   6.997E+01  7.724E-02 
1.613E+03   6.965E+01  7.641E-02 
1.634E+03   6.932E+01  7.560E-02 
1.656E+03   6.899E+01  7.479E-02 
1.677E+03   6.866E+01  7.399E-02 
1.699E+03   6.832E+01  7.320E-02 
1.721E+03   6.799E+01  7.241E-02 
1.743E+03   6.765E+01  7.164E-02 
1.766E+03   6.731E+01  7.087E-02 
1.789E+03   6.696E+01  7.011E-02 
1.812E+03   6.662E+01  6.936E-02 
1.836E+03   6.627E+01  6.862E-02 
1.860E+03   6.592E+01  6.788E-02 
