Ion = Hydrogen    . Mass = 1.0079
Tgt = Mo (Solid). Density = 10.206 g/cm3
Stopping Units =  eV/(1E15 atoms/cm2)
Energy(keV)  S(Elec)    S(Nuc)
1.000E+00   5.750E+00  3.640E-01 
1.012E+00   5.784E+00  3.642E-01 
1.023E+00   5.817E+00  3.644E-01 
1.035E+00   5.851E+00  3.645E-01 
1.047E+00   5.884E+00  3.646E-01 
1.059E+00   5.918E+00  3.648E-01 
1.072E+00   5.953E+00  3.649E-01 
1.084E+00   5.987E+00  3.650E-01 
1.097E+00   6.022E+00  3.651E-01 
1.109E+00   6.057E+00  3.652E-01 
1.122E+00   6.092E+00  3.653E-01 
1.135E+00   6.127E+00  3.654E-01 
1.148E+00   6.162E+00  3.655E-01 
1.162E+00   6.198E+00  3.656E-01 
1.175E+00   6.234E+00  3.656E-01 
1.189E+00   6.270E+00  3.657E-01 
1.203E+00   6.306E+00  3.657E-01 
1.217E+00   6.342E+00  3.658E-01 
1.231E+00   6.379E+00  3.658E-01 
1.245E+00   6.416E+00  3.659E-01 
1.259E+00   6.453E+00  3.659E-01 
1.274E+00   6.490E+00  3.659E-01 
1.289E+00   6.528E+00  3.659E-01 
1.304E+00   6.566E+00  3.659E-01 
1.319E+00   6.604E+00  3.659E-01 
1.334E+00   6.642E+00  3.659E-01 
1.350E+00   6.680E+00  3.659E-01 
1.365E+00   6.719E+00  3.659E-01 
1.381E+00   6.758E+00  3.658E-01 
1.397E+00   6.797E+00  3.658E-01 
1.413E+00   6.836E+00  3.658E-01 
1.430E+00   6.876E+00  3.657E-01 
1.446E+00   6.915E+00  3.656E-01 
1.463E+00   6.955E+00  3.656E-01 
1.480E+00   6.996E+00  3.655E-01 
1.497E+00   7.036E+00  3.654E-01 
1.515E+00   7.077E+00  3.653E-01 
1.532E+00   7.118E+00  3.652E-01 
1.550E+00   7.159E+00  3.651E-01 
1.568E+00   7.200E+00  3.650E-01 
1.586E+00   7.242E+00  3.649E-01 
1.605E+00   7.284E+00  3.648E-01 
1.623E+00   7.326E+00  3.646E-01 
1.642E+00   7.368E+00  3.645E-01 
1.661E+00   7.411E+00  3.643E-01 
1.680E+00   7.454E+00  3.642E-01 
1.700E+00   7.497E+00  3.640E-01 
1.719E+00   7.540E+00  3.639E-01 
1.739E+00   7.584E+00  3.637E-01 
1.760E+00   7.628E+00  3.635E-01 
1.780E+00   7.672E+00  3.633E-01 
1.801E+00   7.716E+00  3.631E-01 
1.822E+00   7.761E+00  3.629E-01 
1.843E+00   7.806E+00  3.627E-01 
1.864E+00   7.851E+00  3.624E-01 
1.886E+00   7.896E+00  3.622E-01 
1.908E+00   7.942E+00  3.620E-01 
1.930E+00   7.988E+00  3.617E-01 
1.952E+00   8.034E+00  3.615E-01 
1.975E+00   8.080E+00  3.612E-01 
1.998E+00   8.127E+00  3.609E-01 
2.021E+00   8.175E+00  3.607E-01 
2.044E+00   8.224E+00  3.604E-01 
2.068E+00   8.274E+00  3.601E-01 
2.092E+00   8.324E+00  3.598E-01 
2.116E+00   8.375E+00  3.595E-01 
2.141E+00   8.425E+00  3.592E-01 
2.166E+00   8.475E+00  3.588E-01 
2.191E+00   8.526E+00  3.585E-01 
2.216E+00   8.577E+00  3.582E-01 
2.242E+00   8.627E+00  3.578E-01 
2.268E+00   8.678E+00  3.575E-01 
2.294E+00   8.729E+00  3.571E-01 
2.321E+00   8.780E+00  3.567E-01 
2.348E+00   8.831E+00  3.563E-01 
2.375E+00   8.882E+00  3.560E-01 
2.402E+00   8.933E+00  3.556E-01 
2.430E+00   8.984E+00  3.552E-01 
2.458E+00   9.035E+00  3.548E-01 
2.487E+00   9.086E+00  3.543E-01 
2.516E+00   9.138E+00  3.539E-01 
2.545E+00   9.189E+00  3.535E-01 
2.574E+00   9.240E+00  3.530E-01 
2.604E+00   9.291E+00  3.526E-01 
2.635E+00   9.341E+00  3.521E-01 
2.665E+00   9.392E+00  3.517E-01 
2.696E+00   9.443E+00  3.512E-01 
2.727E+00   9.494E+00  3.507E-01 
2.759E+00   9.544E+00  3.502E-01 
2.791E+00   9.594E+00  3.498E-01 
2.823E+00   9.644E+00  3.492E-01 
2.856E+00   9.694E+00  3.487E-01 
2.889E+00   9.744E+00  3.482E-01 
2.923E+00   9.794E+00  3.477E-01 
2.957E+00   9.843E+00  3.472E-01 
2.991E+00   9.892E+00  3.466E-01 
3.026E+00   9.941E+00  3.461E-01 
3.061E+00   9.990E+00  3.455E-01 
3.096E+00   1.004E+01  3.450E-01 
3.132E+00   1.009E+01  3.444E-01 
3.168E+00   1.013E+01  3.438E-01 
3.205E+00   1.018E+01  3.433E-01 
3.242E+00   1.023E+01  3.427E-01 
3.280E+00   1.028E+01  3.421E-01 
3.318E+00   1.032E+01  3.415E-01 
3.356E+00   1.037E+01  3.408E-01 
3.395E+00   1.042E+01  3.402E-01 
3.435E+00   1.046E+01  3.396E-01 
3.475E+00   1.051E+01  3.390E-01 
3.515E+00   1.055E+01  3.383E-01 
3.556E+00   1.060E+01  3.377E-01 
3.597E+00   1.064E+01  3.370E-01 
3.639E+00   1.069E+01  3.364E-01 
3.681E+00   1.073E+01  3.357E-01 
3.724E+00   1.077E+01  3.350E-01 
3.767E+00   1.082E+01  3.343E-01 
3.810E+00   1.086E+01  3.336E-01 
3.855E+00   1.091E+01  3.330E-01 
3.899E+00   1.095E+01  3.323E-01 
3.945E+00   1.099E+01  3.315E-01 
3.990E+00   1.104E+01  3.308E-01 
4.037E+00   1.108E+01  3.301E-01 
4.083E+00   1.112E+01  3.294E-01 
4.131E+00   1.117E+01  3.286E-01 
4.179E+00   1.121E+01  3.279E-01 
4.227E+00   1.125E+01  3.271E-01 
4.276E+00   1.130E+01  3.264E-01 
4.326E+00   1.134E+01  3.256E-01 
4.376E+00   1.139E+01  3.249E-01 
4.427E+00   1.143E+01  3.241E-01 
4.478E+00   1.148E+01  3.233E-01 
4.530E+00   1.152E+01  3.225E-01 
4.583E+00   1.157E+01  3.217E-01 
4.636E+00   1.161E+01  3.209E-01 
4.690E+00   1.166E+01  3.201E-01 
4.744E+00   1.171E+01  3.193E-01 
4.799E+00   1.176E+01  3.185E-01 
4.855E+00   1.181E+01  3.176E-01 
4.911E+00   1.186E+01  3.168E-01 
4.968E+00   1.191E+01  3.160E-01 
5.026E+00   1.196E+01  3.151E-01 
5.084E+00   1.202E+01  3.143E-01 
5.143E+00   1.207E+01  3.134E-01 
5.202E+00   1.213E+01  3.126E-01 
5.263E+00   1.218E+01  3.117E-01 
5.324E+00   1.224E+01  3.108E-01 
5.386E+00   1.230E+01  3.100E-01 
5.448E+00   1.236E+01  3.091E-01 
5.511E+00   1.242E+01  3.082E-01 
5.575E+00   1.248E+01  3.073E-01 
5.640E+00   1.255E+01  3.064E-01 
5.705E+00   1.261E+01  3.055E-01 
5.771E+00   1.268E+01  3.046E-01 
5.838E+00   1.275E+01  3.037E-01 
5.906E+00   1.282E+01  3.028E-01 
5.975E+00   1.289E+01  3.018E-01 
6.044E+00   1.296E+01  3.009E-01 
6.114E+00   1.303E+01  3.000E-01 
6.185E+00   1.311E+01  2.990E-01 
6.257E+00   1.318E+01  2.981E-01 
6.329E+00   1.326E+01  2.971E-01 
6.403E+00   1.334E+01  2.962E-01 
6.477E+00   1.342E+01  2.952E-01 
6.552E+00   1.350E+01  2.943E-01 
6.628E+00   1.358E+01  2.933E-01 
6.705E+00   1.367E+01  2.923E-01 
6.783E+00   1.375E+01  2.914E-01 
6.861E+00   1.384E+01  2.904E-01 
6.941E+00   1.392E+01  2.894E-01 
7.021E+00   1.401E+01  2.884E-01 
7.103E+00   1.410E+01  2.874E-01 
7.185E+00   1.420E+01  2.864E-01 
7.269E+00   1.429E+01  2.854E-01 
7.353E+00   1.438E+01  2.844E-01 
7.438E+00   1.448E+01  2.834E-01 
7.524E+00   1.457E+01  2.824E-01 
7.612E+00   1.467E+01  2.814E-01 
7.700E+00   1.477E+01  2.804E-01 
7.789E+00   1.487E+01  2.794E-01 
7.880E+00   1.497E+01  2.783E-01 
7.971E+00   1.507E+01  2.773E-01 
8.064E+00   1.517E+01  2.763E-01 
8.157E+00   1.528E+01  2.752E-01 
8.252E+00   1.538E+01  2.742E-01 
8.347E+00   1.549E+01  2.732E-01 
8.444E+00   1.559E+01  2.721E-01 
8.542E+00   1.570E+01  2.711E-01 
8.641E+00   1.581E+01  2.700E-01 
8.741E+00   1.592E+01  2.690E-01 
8.843E+00   1.603E+01  2.679E-01 
8.945E+00   1.614E+01  2.669E-01 
9.049E+00   1.625E+01  2.658E-01 
9.154E+00   1.637E+01  2.648E-01 
9.260E+00   1.648E+01  2.637E-01 
9.368E+00   1.659E+01  2.626E-01 
9.476E+00   1.671E+01  2.616E-01 
9.586E+00   1.682E+01  2.605E-01 
9.698E+00   1.694E+01  2.594E-01 
9.810E+00   1.706E+01  2.583E-01 
9.924E+00   1.718E+01  2.573E-01 
1.004E+01   1.730E+01  2.562E-01 
1.016E+01   1.742E+01  2.551E-01 
1.027E+01   1.754E+01  2.540E-01 
1.039E+01   1.766E+01  2.529E-01 
1.051E+01   1.778E+01  2.519E-01 
1.063E+01   1.790E+01  2.508E-01 
1.076E+01   1.803E+01  2.497E-01 
1.088E+01   1.815E+01  2.486E-01 
1.101E+01   1.827E+01  2.475E-01 
1.114E+01   1.840E+01  2.464E-01 
1.127E+01   1.853E+01  2.453E-01 
1.140E+01   1.865E+01  2.442E-01 
1.153E+01   1.878E+01  2.431E-01 
1.166E+01   1.891E+01  2.420E-01 
1.180E+01   1.904E+01  2.409E-01 
1.193E+01   1.916E+01  2.398E-01 
1.207E+01   1.929E+01  2.387E-01 
1.221E+01   1.942E+01  2.376E-01 
1.235E+01   1.955E+01  2.365E-01 
1.250E+01   1.969E+01  2.354E-01 
1.264E+01   1.982E+01  2.343E-01 
1.279E+01   1.995E+01  2.332E-01 
1.294E+01   2.008E+01  2.321E-01 
1.309E+01   2.022E+01  2.310E-01 
1.324E+01   2.035E+01  2.299E-01 
1.339E+01   2.048E+01  2.288E-01 
1.355E+01   2.062E+01  2.277E-01 
1.371E+01   2.075E+01  2.266E-01 
1.387E+01   2.089E+01  2.255E-01 
1.403E+01   2.102E+01  2.244E-01 
1.419E+01   2.116E+01  2.233E-01 
1.435E+01   2.130E+01  2.222E-01 
1.452E+01   2.144E+01  2.211E-01 
1.469E+01   2.157E+01  2.200E-01 
1.486E+01   2.171E+01  2.189E-01 
1.503E+01   2.185E+01  2.178E-01 
1.521E+01   2.199E+01  2.167E-01 
1.538E+01   2.213E+01  2.156E-01 
1.556E+01   2.227E+01  2.145E-01 
1.574E+01   2.241E+01  2.134E-01 
1.592E+01   2.255E+01  2.123E-01 
1.611E+01   2.269E+01  2.112E-01 
1.629E+01   2.283E+01  2.101E-01 
1.648E+01   2.298E+01  2.090E-01 
1.667E+01   2.312E+01  2.079E-01 
1.687E+01   2.326E+01  2.069E-01 
1.706E+01   2.340E+01  2.058E-01 
1.726E+01   2.355E+01  2.047E-01 
1.746E+01   2.369E+01  2.036E-01 
1.766E+01   2.383E+01  2.025E-01 
1.787E+01   2.398E+01  2.014E-01 
1.808E+01   2.412E+01  2.003E-01 
1.829E+01   2.426E+01  1.992E-01 
1.850E+01   2.441E+01  1.982E-01 
1.871E+01   2.455E+01  1.971E-01 
1.893E+01   2.470E+01  1.960E-01 
1.915E+01   2.484E+01  1.949E-01 
1.937E+01   2.499E+01  1.939E-01 
1.960E+01   2.514E+01  1.928E-01 
1.982E+01   2.528E+01  1.917E-01 
2.005E+01   2.543E+01  1.906E-01 
2.029E+01   2.557E+01  1.896E-01 
2.052E+01   2.572E+01  1.885E-01 
2.076E+01   2.586E+01  1.874E-01 
2.100E+01   2.601E+01  1.864E-01 
2.124E+01   2.616E+01  1.853E-01 
2.149E+01   2.630E+01  1.843E-01 
2.174E+01   2.645E+01  1.832E-01 
2.199E+01   2.660E+01  1.822E-01 
2.225E+01   2.674E+01  1.811E-01 
2.250E+01   2.689E+01  1.801E-01 
2.277E+01   2.704E+01  1.790E-01 
2.303E+01   2.718E+01  1.780E-01 
2.330E+01   2.733E+01  1.769E-01 
2.357E+01   2.747E+01  1.759E-01 
2.384E+01   2.762E+01  1.749E-01 
2.412E+01   2.777E+01  1.738E-01 
2.440E+01   2.791E+01  1.728E-01 
2.468E+01   2.806E+01  1.718E-01 
2.497E+01   2.820E+01  1.708E-01 
2.526E+01   2.835E+01  1.697E-01 
2.555E+01   2.849E+01  1.687E-01 
2.584E+01   2.864E+01  1.677E-01 
2.614E+01   2.878E+01  1.667E-01 
2.645E+01   2.893E+01  1.657E-01 
2.675E+01   2.907E+01  1.647E-01 
2.707E+01   2.922E+01  1.637E-01 
2.738E+01   2.936E+01  1.627E-01 
2.770E+01   2.950E+01  1.617E-01 
2.802E+01   2.965E+01  1.607E-01 
2.834E+01   2.979E+01  1.597E-01 
2.867E+01   2.993E+01  1.587E-01 
2.900E+01   3.007E+01  1.577E-01 
2.934E+01   3.022E+01  1.567E-01 
2.968E+01   3.036E+01  1.557E-01 
3.003E+01   3.050E+01  1.548E-01 
3.037E+01   3.064E+01  1.538E-01 
3.073E+01   3.078E+01  1.528E-01 
3.108E+01   3.092E+01  1.519E-01 
3.144E+01   3.105E+01  1.509E-01 
3.181E+01   3.119E+01  1.499E-01 
3.218E+01   3.133E+01  1.490E-01 
3.255E+01   3.147E+01  1.480E-01 
3.293E+01   3.160E+01  1.471E-01 
3.331E+01   3.174E+01  1.461E-01 
3.370E+01   3.187E+01  1.452E-01 
3.409E+01   3.200E+01  1.442E-01 
3.448E+01   3.214E+01  1.433E-01 
3.488E+01   3.227E+01  1.424E-01 
3.529E+01   3.240E+01  1.414E-01 
3.570E+01   3.253E+01  1.405E-01 
3.611E+01   3.266E+01  1.396E-01 
3.653E+01   3.279E+01  1.387E-01 
3.695E+01   3.292E+01  1.378E-01 
3.738E+01   3.305E+01  1.369E-01 
3.781E+01   3.317E+01  1.359E-01 
3.825E+01   3.330E+01  1.350E-01 
3.870E+01   3.342E+01  1.341E-01 
3.915E+01   3.355E+01  1.333E-01 
3.960E+01   3.367E+01  1.324E-01 
4.006E+01   3.379E+01  1.315E-01 
4.052E+01   3.391E+01  1.306E-01 
4.099E+01   3.403E+01  1.297E-01 
4.147E+01   3.415E+01  1.288E-01 
4.195E+01   3.426E+01  1.280E-01 
4.244E+01   3.438E+01  1.271E-01 
4.293E+01   3.449E+01  1.262E-01 
4.343E+01   3.461E+01  1.254E-01 
4.393E+01   3.472E+01  1.245E-01 
4.444E+01   3.483E+01  1.236E-01 
4.496E+01   3.494E+01  1.228E-01 
4.548E+01   3.505E+01  1.220E-01 
4.600E+01   3.515E+01  1.211E-01 
4.654E+01   3.526E+01  1.203E-01 
4.708E+01   3.536E+01  1.194E-01 
4.762E+01   3.546E+01  1.186E-01 
4.818E+01   3.556E+01  1.178E-01 
4.873E+01   3.566E+01  1.170E-01 
4.930E+01   3.576E+01  1.161E-01 
4.987E+01   3.586E+01  1.153E-01 
5.045E+01   3.595E+01  1.145E-01 
5.104E+01   3.605E+01  1.137E-01 
5.163E+01   3.614E+01  1.129E-01 
5.223E+01   3.623E+01  1.121E-01 
5.283E+01   3.632E+01  1.113E-01 
5.344E+01   3.641E+01  1.105E-01 
5.406E+01   3.649E+01  1.097E-01 
5.469E+01   3.657E+01  1.090E-01 
5.533E+01   3.666E+01  1.082E-01 
5.597E+01   3.674E+01  1.074E-01 
5.662E+01   3.682E+01  1.066E-01 
5.727E+01   3.689E+01  1.059E-01 
5.794E+01   3.697E+01  1.051E-01 
5.861E+01   3.704E+01  1.043E-01 
5.929E+01   3.711E+01  1.036E-01 
5.998E+01   3.718E+01  1.028E-01 
6.067E+01   3.725E+01  1.021E-01 
6.138E+01   3.732E+01  1.013E-01 
6.209E+01   3.738E+01  1.006E-01 
6.281E+01   3.744E+01  9.987E-02 
6.354E+01   3.750E+01  9.914E-02 
6.427E+01   3.756E+01  9.841E-02 
6.502E+01   3.762E+01  9.769E-02 
6.577E+01   3.767E+01  9.697E-02 
6.654E+01   3.772E+01  9.626E-02 
6.731E+01   3.777E+01  9.555E-02 
6.809E+01   3.782E+01  9.484E-02 
6.888E+01   3.787E+01  9.414E-02 
6.968E+01   3.791E+01  9.344E-02 
7.049E+01   3.796E+01  9.274E-02 
7.130E+01   3.800E+01  9.205E-02 
7.213E+01   3.804E+01  9.136E-02 
7.297E+01   3.807E+01  9.068E-02 
7.381E+01   3.811E+01  9.000E-02 
7.467E+01   3.814E+01  8.932E-02 
7.554E+01   3.817E+01  8.865E-02 
7.641E+01   3.820E+01  8.798E-02 
7.730E+01   3.822E+01  8.732E-02 
7.820E+01   3.825E+01  8.666E-02 
7.910E+01   3.827E+01  8.600E-02 
8.002E+01   3.829E+01  8.535E-02 
8.095E+01   3.831E+01  8.470E-02 
8.189E+01   3.832E+01  8.406E-02 
8.284E+01   3.833E+01  8.342E-02 
8.380E+01   3.835E+01  8.278E-02 
8.477E+01   3.835E+01  8.215E-02 
8.575E+01   3.836E+01  8.152E-02 
8.675E+01   3.837E+01  8.089E-02 
8.775E+01   3.837E+01  8.027E-02 
8.877E+01   3.837E+01  7.966E-02 
8.980E+01   3.837E+01  7.904E-02 
9.084E+01   3.836E+01  7.843E-02 
9.190E+01   3.836E+01  7.783E-02 
9.296E+01   3.835E+01  7.722E-02 
9.404E+01   3.834E+01  7.662E-02 
9.513E+01   3.833E+01  7.603E-02 
9.624E+01   3.831E+01  7.544E-02 
9.735E+01   3.830E+01  7.485E-02 
9.848E+01   3.828E+01  7.427E-02 
9.962E+01   3.826E+01  7.369E-02 
1.008E+02   3.824E+01  7.311E-02 
1.019E+02   3.821E+01  7.254E-02 
1.031E+02   3.818E+01  7.197E-02 
1.043E+02   3.816E+01  7.140E-02 
1.055E+02   3.812E+01  7.084E-02 
1.068E+02   3.809E+01  7.028E-02 
1.080E+02   3.806E+01  6.973E-02 
1.093E+02   3.802E+01  6.918E-02 
1.105E+02   3.798E+01  6.863E-02 
1.118E+02   3.794E+01  6.809E-02 
1.131E+02   3.790E+01  6.754E-02 
1.144E+02   3.785E+01  6.701E-02 
1.157E+02   3.780E+01  6.647E-02 
1.171E+02   3.775E+01  6.595E-02 
1.184E+02   3.770E+01  6.542E-02 
1.198E+02   3.765E+01  6.490E-02 
1.212E+02   3.760E+01  6.438E-02 
1.226E+02   3.754E+01  6.386E-02 
1.240E+02   3.748E+01  6.335E-02 
1.255E+02   3.742E+01  6.284E-02 
1.269E+02   3.736E+01  6.233E-02 
1.284E+02   3.729E+01  6.183E-02 
1.299E+02   3.723E+01  6.133E-02 
1.314E+02   3.716E+01  6.084E-02 
1.329E+02   3.709E+01  6.186E-02 
1.345E+02   3.702E+01  6.136E-02 
1.360E+02   3.695E+01  6.086E-02 
1.376E+02   3.687E+01  6.036E-02 
1.392E+02   3.680E+01  5.987E-02 
1.408E+02   3.672E+01  5.938E-02 
1.424E+02   3.664E+01  5.889E-02 
1.441E+02   3.656E+01  5.841E-02 
1.458E+02   3.647E+01  5.793E-02 
1.475E+02   3.639E+01  5.746E-02 
1.492E+02   3.630E+01  5.698E-02 
1.509E+02   3.621E+01  5.651E-02 
1.526E+02   3.612E+01  5.605E-02 
1.544E+02   3.603E+01  5.559E-02 
1.562E+02   3.594E+01  5.513E-02 
1.580E+02   3.585E+01  5.467E-02 
1.598E+02   3.575E+01  5.422E-02 
1.617E+02   3.566E+01  5.377E-02 
1.636E+02   3.556E+01  5.332E-02 
1.655E+02   3.546E+01  5.288E-02 
1.674E+02   3.536E+01  5.244E-02 
1.693E+02   3.525E+01  5.200E-02 
1.713E+02   3.515E+01  5.157E-02 
1.733E+02   3.505E+01  5.114E-02 
1.753E+02   3.494E+01  5.071E-02 
1.773E+02   3.483E+01  5.028E-02 
1.794E+02   3.472E+01  4.986E-02 
1.815E+02   3.461E+01  4.944E-02 
1.836E+02   3.450E+01  4.903E-02 
1.857E+02   3.439E+01  4.862E-02 
1.879E+02   3.428E+01  4.821E-02 
1.900E+02   3.416E+01  4.780E-02 
1.922E+02   3.405E+01  4.740E-02 
1.945E+02   3.393E+01  4.700E-02 
1.967E+02   3.381E+01  4.660E-02 
1.990E+02   3.369E+01  4.620E-02 
2.013E+02   3.357E+01  4.581E-02 
2.036E+02   3.345E+01  4.542E-02 
2.060E+02   3.333E+01  4.504E-02 
2.084E+02   3.321E+01  4.465E-02 
2.108E+02   3.309E+01  4.427E-02 
2.133E+02   3.296E+01  4.390E-02 
2.157E+02   3.284E+01  4.352E-02 
2.182E+02   3.271E+01  4.315E-02 
2.208E+02   3.258E+01  4.278E-02 
2.233E+02   3.246E+01  4.242E-02 
2.259E+02   3.233E+01  4.205E-02 
2.285E+02   3.220E+01  4.169E-02 
2.312E+02   3.207E+01  4.133E-02 
2.339E+02   3.194E+01  4.098E-02 
2.366E+02   3.181E+01  4.063E-02 
2.393E+02   3.168E+01  4.028E-02 
2.421E+02   3.154E+01  3.993E-02 
2.449E+02   3.141E+01  3.959E-02 
2.478E+02   3.128E+01  3.924E-02 
2.506E+02   3.114E+01  3.890E-02 
2.535E+02   3.101E+01  3.857E-02 
2.565E+02   3.087E+01  3.823E-02 
2.595E+02   3.074E+01  3.790E-02 
2.625E+02   3.060E+01  3.757E-02 
2.655E+02   3.047E+01  3.725E-02 
2.686E+02   3.033E+01  3.692E-02 
2.717E+02   3.019E+01  3.660E-02 
2.749E+02   3.005E+01  3.628E-02 
2.780E+02   2.992E+01  3.597E-02 
2.813E+02   2.978E+01  3.566E-02 
2.845E+02   2.964E+01  3.534E-02 
2.878E+02   2.950E+01  3.504E-02 
2.912E+02   2.936E+01  3.473E-02 
2.945E+02   2.922E+01  3.443E-02 
2.980E+02   2.908E+01  3.412E-02 
3.014E+02   2.894E+01  3.382E-02 
3.049E+02   2.880E+01  3.353E-02 
3.085E+02   2.866E+01  3.323E-02 
3.120E+02   2.852E+01  3.294E-02 
3.156E+02   2.838E+01  3.265E-02 
3.193E+02   2.823E+01  3.236E-02 
3.230E+02   2.809E+01  3.208E-02 
3.268E+02   2.795E+01  3.180E-02 
3.306E+02   2.781E+01  3.152E-02 
3.344E+02   2.767E+01  3.124E-02 
3.383E+02   2.753E+01  3.096E-02 
3.422E+02   2.739E+01  3.069E-02 
3.462E+02   2.724E+01  3.042E-02 
3.502E+02   2.710E+01  3.015E-02 
3.542E+02   2.696E+01  2.988E-02 
3.583E+02   2.682E+01  2.962E-02 
3.625E+02   2.668E+01  2.935E-02 
3.667E+02   2.653E+01  2.909E-02 
3.710E+02   2.639E+01  2.883E-02 
3.753E+02   2.625E+01  2.858E-02 
3.796E+02   2.611E+01  2.832E-02 
3.840E+02   2.597E+01  2.807E-02 
3.885E+02   2.583E+01  2.782E-02 
3.930E+02   2.569E+01  2.757E-02 
3.975E+02   2.555E+01  2.732E-02 
4.021E+02   2.540E+01  2.708E-02 
4.068E+02   2.526E+01  2.684E-02 
4.115E+02   2.512E+01  2.660E-02 
4.163E+02   2.498E+01  2.636E-02 
4.211E+02   2.484E+01  2.612E-02 
4.260E+02   2.470E+01  2.589E-02 
4.310E+02   2.456E+01  2.566E-02 
4.360E+02   2.442E+01  2.543E-02 
4.410E+02   2.428E+01  2.520E-02 
4.461E+02   2.414E+01  2.497E-02 
4.513E+02   2.401E+01  2.475E-02 
4.565E+02   2.387E+01  2.452E-02 
4.618E+02   2.373E+01  2.430E-02 
4.672E+02   2.359E+01  2.408E-02 
4.726E+02   2.345E+01  2.387E-02 
4.781E+02   2.332E+01  2.365E-02 
4.836E+02   2.318E+01  2.344E-02 
4.892E+02   2.304E+01  2.323E-02 
4.949E+02   2.291E+01  2.302E-02 
5.007E+02   2.277E+01  2.281E-02 
5.065E+02   2.263E+01  2.260E-02 
5.123E+02   2.250E+01  2.240E-02 
5.183E+02   2.236E+01  2.219E-02 
5.243E+02   2.223E+01  2.199E-02 
5.304E+02   2.210E+01  2.179E-02 
5.365E+02   2.196E+01  2.159E-02 
5.428E+02   2.183E+01  2.140E-02 
5.490E+02   2.170E+01  2.120E-02 
5.554E+02   2.156E+01  2.101E-02 
5.619E+02   2.143E+01  2.082E-02 
5.684E+02   2.130E+01  2.063E-02 
5.750E+02   2.117E+01  2.044E-02 
5.816E+02   2.104E+01  2.025E-02 
5.884E+02   2.091E+01  2.007E-02 
5.952E+02   2.078E+01  1.988E-02 
6.021E+02   2.065E+01  1.970E-02 
6.091E+02   2.052E+01  1.952E-02 
6.162E+02   2.039E+01  1.934E-02 
6.233E+02   2.026E+01  1.917E-02 
6.305E+02   2.013E+01  1.899E-02 
6.378E+02   2.001E+01  1.882E-02 
6.452E+02   1.988E+01  1.864E-02 
6.527E+02   1.975E+01  1.847E-02 
6.603E+02   1.963E+01  1.830E-02 
6.680E+02   1.950E+01  1.813E-02 
6.757E+02   1.938E+01  1.797E-02 
6.835E+02   1.925E+01  1.780E-02 
6.915E+02   1.913E+01  1.764E-02 
6.995E+02   1.901E+01  1.748E-02 
7.076E+02   1.888E+01  1.732E-02 
7.158E+02   1.876E+01  1.716E-02 
7.241E+02   1.864E+01  1.700E-02 
7.325E+02   1.852E+01  1.684E-02 
7.410E+02   1.840E+01  1.668E-02 
7.496E+02   1.828E+01  1.653E-02 
7.583E+02   1.816E+01  1.638E-02 
7.671E+02   1.804E+01  1.623E-02 
7.760E+02   1.792E+01  1.608E-02 
7.850E+02   1.780E+01  1.593E-02 
7.941E+02   1.769E+01  1.578E-02 
8.033E+02   1.757E+01  1.563E-02 
8.126E+02   1.745E+01  1.549E-02 
8.221E+02   1.734E+01  1.534E-02 
8.316E+02   1.722E+01  1.520E-02 
