Ion = Hydrogen    . Mass = 1.0079
Tgt = Ti (Solid). Density = 4.5189 g/cm3
Stopping Units =  eV/(1E15 atoms/cm2)
Energy(keV)  S(Elec)    S(Nuc)
1.000E+00   4.939E+00  4.729E-01 
1.012E+00   4.968E+00  4.725E-01 
1.023E+00   4.997E+00  4.720E-01 
1.035E+00   5.026E+00  4.716E-01 
1.047E+00   5.055E+00  4.711E-01 
1.059E+00   5.084E+00  4.706E-01 
1.072E+00   5.113E+00  4.701E-01 
1.084E+00   5.143E+00  4.696E-01 
1.097E+00   5.173E+00  4.691E-01 
1.109E+00   5.202E+00  4.686E-01 
1.122E+00   5.233E+00  4.680E-01 
1.135E+00   5.263E+00  4.675E-01 
1.148E+00   5.293E+00  4.669E-01 
1.162E+00   5.324E+00  4.663E-01 
1.175E+00   5.355E+00  4.658E-01 
1.189E+00   5.386E+00  4.652E-01 
1.203E+00   5.417E+00  4.646E-01 
1.217E+00   5.448E+00  4.639E-01 
1.231E+00   5.480E+00  4.633E-01 
1.245E+00   5.511E+00  4.627E-01 
1.259E+00   5.543E+00  4.620E-01 
1.274E+00   5.575E+00  4.614E-01 
1.289E+00   5.607E+00  4.607E-01 
1.304E+00   5.640E+00  4.600E-01 
1.319E+00   5.672E+00  4.593E-01 
1.334E+00   5.705E+00  4.586E-01 
1.350E+00   5.738E+00  4.579E-01 
1.365E+00   5.771E+00  4.571E-01 
1.381E+00   5.805E+00  4.564E-01 
1.397E+00   5.838E+00  4.557E-01 
1.413E+00   5.872E+00  4.549E-01 
1.430E+00   5.906E+00  4.541E-01 
1.446E+00   5.940E+00  4.533E-01 
1.463E+00   5.975E+00  4.525E-01 
1.480E+00   6.009E+00  4.517E-01 
1.497E+00   6.044E+00  4.509E-01 
1.515E+00   6.079E+00  4.501E-01 
1.532E+00   6.114E+00  4.493E-01 
1.550E+00   6.149E+00  4.484E-01 
1.568E+00   6.185E+00  4.476E-01 
1.586E+00   6.221E+00  4.467E-01 
1.605E+00   6.257E+00  4.458E-01 
1.623E+00   6.293E+00  4.449E-01 
1.642E+00   6.329E+00  4.440E-01 
1.661E+00   6.366E+00  4.431E-01 
1.680E+00   6.403E+00  4.422E-01 
1.700E+00   6.440E+00  4.413E-01 
1.719E+00   6.477E+00  4.404E-01 
1.739E+00   6.514E+00  4.394E-01 
1.760E+00   6.552E+00  4.385E-01 
1.780E+00   6.590E+00  4.375E-01 
1.801E+00   6.628E+00  4.365E-01 
1.822E+00   6.666E+00  4.355E-01 
1.843E+00   6.705E+00  4.345E-01 
1.864E+00   6.744E+00  4.335E-01 
1.886E+00   6.783E+00  4.325E-01 
1.908E+00   6.822E+00  4.315E-01 
1.930E+00   6.861E+00  4.305E-01 
1.952E+00   6.901E+00  4.294E-01 
1.975E+00   6.941E+00  4.284E-01 
1.998E+00   6.981E+00  4.273E-01 
2.021E+00   7.021E+00  4.262E-01 
2.044E+00   7.061E+00  4.252E-01 
2.068E+00   7.102E+00  4.241E-01 
2.092E+00   7.142E+00  4.230E-01 
2.116E+00   7.183E+00  4.219E-01 
2.141E+00   7.224E+00  4.208E-01 
2.166E+00   7.265E+00  4.196E-01 
2.191E+00   7.306E+00  4.185E-01 
2.216E+00   7.348E+00  4.174E-01 
2.242E+00   7.390E+00  4.162E-01 
2.268E+00   7.432E+00  4.151E-01 
2.294E+00   7.475E+00  4.139E-01 
2.321E+00   7.517E+00  4.128E-01 
2.348E+00   7.560E+00  4.116E-01 
2.375E+00   7.603E+00  4.104E-01 
2.402E+00   7.646E+00  4.092E-01 
2.430E+00   7.690E+00  4.080E-01 
2.458E+00   7.734E+00  4.068E-01 
2.487E+00   7.778E+00  4.056E-01 
2.516E+00   7.822E+00  4.044E-01 
2.545E+00   7.867E+00  4.031E-01 
2.574E+00   7.912E+00  4.019E-01 
2.604E+00   7.957E+00  4.007E-01 
2.635E+00   8.002E+00  3.994E-01 
2.665E+00   8.047E+00  3.981E-01 
2.696E+00   8.093E+00  3.969E-01 
2.727E+00   8.139E+00  3.956E-01 
2.759E+00   8.186E+00  3.943E-01 
2.791E+00   8.232E+00  3.931E-01 
2.823E+00   8.279E+00  3.918E-01 
2.856E+00   8.326E+00  3.905E-01 
2.889E+00   8.374E+00  3.892E-01 
2.923E+00   8.421E+00  3.879E-01 
2.957E+00   8.469E+00  3.865E-01 
2.991E+00   8.517E+00  3.852E-01 
3.026E+00   8.566E+00  3.839E-01 
3.061E+00   8.614E+00  3.826E-01 
3.096E+00   8.663E+00  3.812E-01 
3.132E+00   8.712E+00  3.799E-01 
3.168E+00   8.762E+00  3.785E-01 
3.205E+00   8.812E+00  3.772E-01 
3.242E+00   8.862E+00  3.758E-01 
3.280E+00   8.912E+00  3.745E-01 
3.318E+00   8.963E+00  3.731E-01 
3.356E+00   9.014E+00  3.717E-01 
3.395E+00   9.065E+00  3.703E-01 
3.435E+00   9.116E+00  3.690E-01 
3.475E+00   9.168E+00  3.676E-01 
3.515E+00   9.220E+00  3.662E-01 
3.556E+00   9.272E+00  3.648E-01 
3.597E+00   9.325E+00  3.634E-01 
3.639E+00   9.378E+00  3.620E-01 
3.681E+00   9.431E+00  3.606E-01 
3.724E+00   9.484E+00  3.592E-01 
3.767E+00   9.538E+00  3.578E-01 
3.810E+00   9.592E+00  3.563E-01 
3.855E+00   9.646E+00  3.549E-01 
3.899E+00   9.701E+00  3.535E-01 
3.945E+00   9.756E+00  3.521E-01 
3.990E+00   9.811E+00  3.506E-01 
4.037E+00   9.867E+00  3.492E-01 
4.083E+00   9.922E+00  3.478E-01 
4.131E+00   9.979E+00  3.463E-01 
4.179E+00   1.003E+01  3.449E-01 
4.227E+00   1.009E+01  3.434E-01 
4.276E+00   1.015E+01  3.420E-01 
4.326E+00   1.021E+01  3.405E-01 
4.376E+00   1.026E+01  3.391E-01 
4.427E+00   1.032E+01  3.376E-01 
4.478E+00   1.038E+01  3.361E-01 
4.530E+00   1.044E+01  3.347E-01 
4.583E+00   1.050E+01  3.332E-01 
4.636E+00   1.056E+01  3.318E-01 
4.690E+00   1.062E+01  3.303E-01 
4.744E+00   1.068E+01  3.288E-01 
4.799E+00   1.074E+01  3.273E-01 
4.855E+00   1.080E+01  3.259E-01 
4.911E+00   1.086E+01  3.244E-01 
4.968E+00   1.092E+01  3.229E-01 
5.026E+00   1.098E+01  3.214E-01 
5.084E+00   1.104E+01  3.200E-01 
5.143E+00   1.110E+01  3.185E-01 
5.202E+00   1.117E+01  3.170E-01 
5.263E+00   1.123E+01  3.155E-01 
5.324E+00   1.129E+01  3.140E-01 
5.386E+00   1.136E+01  3.126E-01 
5.448E+00   1.142E+01  3.111E-01 
5.511E+00   1.148E+01  3.096E-01 
5.575E+00   1.155E+01  3.081E-01 
5.640E+00   1.161E+01  3.066E-01 
5.705E+00   1.168E+01  3.052E-01 
5.771E+00   1.174E+01  3.037E-01 
5.838E+00   1.181E+01  3.022E-01 
5.906E+00   1.187E+01  3.007E-01 
5.975E+00   1.194E+01  2.992E-01 
6.044E+00   1.201E+01  2.977E-01 
6.114E+00   1.207E+01  2.963E-01 
6.185E+00   1.214E+01  2.948E-01 
6.257E+00   1.221E+01  2.933E-01 
6.329E+00   1.228E+01  2.918E-01 
6.403E+00   1.235E+01  2.903E-01 
6.477E+00   1.242E+01  2.888E-01 
6.552E+00   1.248E+01  2.874E-01 
6.628E+00   1.255E+01  2.859E-01 
6.705E+00   1.262E+01  2.844E-01 
6.783E+00   1.269E+01  2.829E-01 
6.861E+00   1.276E+01  2.815E-01 
6.941E+00   1.284E+01  2.800E-01 
7.021E+00   1.291E+01  2.785E-01 
7.103E+00   1.298E+01  2.770E-01 
7.185E+00   1.305E+01  2.756E-01 
7.269E+00   1.312E+01  2.741E-01 
7.353E+00   1.320E+01  2.726E-01 
7.438E+00   1.327E+01  2.712E-01 
7.524E+00   1.334E+01  2.697E-01 
7.612E+00   1.342E+01  2.683E-01 
7.700E+00   1.349E+01  2.668E-01 
7.789E+00   1.356E+01  2.653E-01 
7.880E+00   1.364E+01  2.639E-01 
7.971E+00   1.371E+01  2.624E-01 
8.064E+00   1.379E+01  2.610E-01 
8.157E+00   1.387E+01  2.595E-01 
8.252E+00   1.394E+01  2.581E-01 
8.347E+00   1.402E+01  2.567E-01 
8.444E+00   1.410E+01  2.552E-01 
8.542E+00   1.417E+01  2.538E-01 
8.641E+00   1.425E+01  2.524E-01 
8.741E+00   1.433E+01  2.509E-01 
8.843E+00   1.441E+01  2.495E-01 
8.945E+00   1.449E+01  2.481E-01 
9.049E+00   1.457E+01  2.466E-01 
9.154E+00   1.464E+01  2.452E-01 
9.260E+00   1.472E+01  2.438E-01 
9.368E+00   1.481E+01  2.424E-01 
9.476E+00   1.489E+01  2.410E-01 
9.586E+00   1.497E+01  2.396E-01 
9.698E+00   1.505E+01  2.382E-01 
9.810E+00   1.513E+01  2.368E-01 
9.924E+00   1.521E+01  2.354E-01 
1.004E+01   1.529E+01  2.340E-01 
1.016E+01   1.538E+01  2.326E-01 
1.027E+01   1.546E+01  2.312E-01 
1.039E+01   1.554E+01  2.298E-01 
1.051E+01   1.563E+01  2.285E-01 
1.063E+01   1.571E+01  2.271E-01 
1.076E+01   1.580E+01  2.257E-01 
1.088E+01   1.588E+01  2.243E-01 
1.101E+01   1.597E+01  2.230E-01 
1.114E+01   1.605E+01  2.216E-01 
1.127E+01   1.614E+01  2.203E-01 
1.140E+01   1.623E+01  2.189E-01 
1.153E+01   1.631E+01  2.176E-01 
1.166E+01   1.640E+01  2.162E-01 
1.180E+01   1.649E+01  2.149E-01 
1.193E+01   1.657E+01  2.136E-01 
1.207E+01   1.666E+01  2.122E-01 
1.221E+01   1.675E+01  2.109E-01 
1.235E+01   1.684E+01  2.096E-01 
1.250E+01   1.693E+01  2.083E-01 
1.264E+01   1.702E+01  2.069E-01 
1.279E+01   1.711E+01  2.056E-01 
1.294E+01   1.720E+01  2.043E-01 
1.309E+01   1.729E+01  2.030E-01 
1.324E+01   1.738E+01  2.017E-01 
1.339E+01   1.747E+01  2.004E-01 
1.355E+01   1.756E+01  1.992E-01 
1.371E+01   1.766E+01  1.979E-01 
1.387E+01   1.775E+01  1.966E-01 
1.403E+01   1.784E+01  1.953E-01 
1.419E+01   1.793E+01  1.941E-01 
1.435E+01   1.803E+01  1.928E-01 
1.452E+01   1.812E+01  1.915E-01 
1.469E+01   1.821E+01  1.903E-01 
1.486E+01   1.831E+01  1.890E-01 
1.503E+01   1.840E+01  1.878E-01 
1.521E+01   1.850E+01  1.866E-01 
1.538E+01   1.859E+01  1.853E-01 
1.556E+01   1.869E+01  1.841E-01 
1.574E+01   1.878E+01  1.829E-01 
1.592E+01   1.888E+01  1.817E-01 
1.611E+01   1.898E+01  1.804E-01 
1.629E+01   1.907E+01  1.792E-01 
1.648E+01   1.917E+01  1.780E-01 
1.667E+01   1.927E+01  1.768E-01 
1.687E+01   1.936E+01  1.756E-01 
1.706E+01   1.946E+01  1.745E-01 
1.726E+01   1.956E+01  1.733E-01 
1.746E+01   1.966E+01  1.721E-01 
1.766E+01   1.976E+01  1.709E-01 
1.787E+01   1.986E+01  1.698E-01 
1.808E+01   1.995E+01  1.686E-01 
1.829E+01   2.005E+01  1.674E-01 
1.850E+01   2.015E+01  1.663E-01 
1.871E+01   2.025E+01  1.651E-01 
1.893E+01   2.035E+01  1.640E-01 
1.915E+01   2.045E+01  1.629E-01 
1.937E+01   2.055E+01  1.617E-01 
1.960E+01   2.065E+01  1.606E-01 
1.982E+01   2.075E+01  1.595E-01 
2.005E+01   2.086E+01  1.584E-01 
2.029E+01   2.096E+01  1.573E-01 
2.052E+01   2.106E+01  1.562E-01 
2.076E+01   2.116E+01  1.551E-01 
2.100E+01   2.126E+01  1.540E-01 
2.124E+01   2.136E+01  1.529E-01 
2.149E+01   2.147E+01  1.518E-01 
2.174E+01   2.157E+01  1.507E-01 
2.199E+01   2.167E+01  1.497E-01 
2.225E+01   2.177E+01  1.486E-01 
2.250E+01   2.188E+01  1.475E-01 
2.277E+01   2.198E+01  1.465E-01 
2.303E+01   2.208E+01  1.454E-01 
2.330E+01   2.218E+01  1.444E-01 
2.357E+01   2.229E+01  1.434E-01 
2.384E+01   2.239E+01  1.423E-01 
2.412E+01   2.249E+01  1.413E-01 
2.440E+01   2.260E+01  1.403E-01 
2.468E+01   2.270E+01  1.392E-01 
2.497E+01   2.280E+01  1.382E-01 
2.526E+01   2.291E+01  1.372E-01 
2.555E+01   2.301E+01  1.362E-01 
2.584E+01   2.311E+01  1.352E-01 
2.614E+01   2.322E+01  1.342E-01 
2.645E+01   2.332E+01  1.333E-01 
2.675E+01   2.343E+01  1.323E-01 
2.707E+01   2.353E+01  1.313E-01 
2.738E+01   2.363E+01  1.303E-01 
2.770E+01   2.374E+01  1.294E-01 
2.802E+01   2.384E+01  1.284E-01 
2.834E+01   2.394E+01  1.275E-01 
2.867E+01   2.405E+01  1.265E-01 
2.900E+01   2.415E+01  1.256E-01 
2.934E+01   2.425E+01  1.246E-01 
2.968E+01   2.435E+01  1.237E-01 
3.003E+01   2.446E+01  1.228E-01 
3.037E+01   2.456E+01  1.219E-01 
3.073E+01   2.466E+01  1.209E-01 
3.108E+01   2.476E+01  1.200E-01 
3.144E+01   2.487E+01  1.191E-01 
3.181E+01   2.497E+01  1.182E-01 
3.218E+01   2.507E+01  1.173E-01 
3.255E+01   2.517E+01  1.164E-01 
3.293E+01   2.527E+01  1.156E-01 
3.331E+01   2.537E+01  1.147E-01 
3.370E+01   2.547E+01  1.138E-01 
3.409E+01   2.557E+01  1.129E-01 
3.448E+01   2.567E+01  1.121E-01 
3.488E+01   2.577E+01  1.112E-01 
3.529E+01   2.587E+01  1.104E-01 
3.570E+01   2.597E+01  1.095E-01 
3.611E+01   2.607E+01  1.087E-01 
3.653E+01   2.617E+01  1.078E-01 
3.695E+01   2.627E+01  1.070E-01 
3.738E+01   2.636E+01  1.062E-01 
3.781E+01   2.646E+01  1.054E-01 
3.825E+01   2.656E+01  1.045E-01 
3.870E+01   2.665E+01  1.037E-01 
3.915E+01   2.675E+01  1.029E-01 
3.960E+01   2.684E+01  1.021E-01 
4.006E+01   2.694E+01  1.013E-01 
4.052E+01   2.703E+01  1.005E-01 
4.099E+01   2.712E+01  9.976E-02 
4.147E+01   2.722E+01  9.898E-02 
4.195E+01   2.731E+01  9.820E-02 
4.244E+01   2.740E+01  9.743E-02 
4.293E+01   2.749E+01  9.666E-02 
4.343E+01   2.758E+01  9.590E-02 
4.393E+01   2.767E+01  9.515E-02 
4.444E+01   2.776E+01  9.439E-02 
4.496E+01   2.784E+01  9.365E-02 
4.548E+01   2.793E+01  9.291E-02 
4.600E+01   2.802E+01  9.217E-02 
4.654E+01   2.810E+01  9.144E-02 
4.708E+01   2.819E+01  9.071E-02 
4.762E+01   2.827E+01  8.999E-02 
4.818E+01   2.835E+01  8.927E-02 
4.873E+01   2.844E+01  8.856E-02 
4.930E+01   2.852E+01  8.785E-02 
4.987E+01   2.860E+01  8.715E-02 
5.045E+01   2.868E+01  8.645E-02 
5.104E+01   2.875E+01  8.575E-02 
5.163E+01   2.883E+01  8.506E-02 
5.223E+01   2.891E+01  8.438E-02 
5.283E+01   2.898E+01  8.370E-02 
5.344E+01   2.906E+01  8.302E-02 
5.406E+01   2.913E+01  8.235E-02 
5.469E+01   2.920E+01  8.169E-02 
5.533E+01   2.927E+01  8.103E-02 
5.597E+01   2.934E+01  8.037E-02 
5.662E+01   2.941E+01  7.972E-02 
5.727E+01   2.948E+01  7.907E-02 
5.794E+01   2.954E+01  7.842E-02 
5.861E+01   2.961E+01  7.778E-02 
5.929E+01   2.967E+01  7.715E-02 
5.998E+01   2.973E+01  7.652E-02 
6.067E+01   2.979E+01  7.589E-02 
6.138E+01   2.985E+01  7.527E-02 
6.209E+01   2.991E+01  7.466E-02 
6.281E+01   2.996E+01  7.404E-02 
6.354E+01   3.002E+01  7.112E-02 
6.427E+01   3.007E+01  7.054E-02 
6.502E+01   3.012E+01  6.997E-02 
6.577E+01   3.017E+01  6.940E-02 
6.654E+01   3.022E+01  6.883E-02 
6.731E+01   3.027E+01  6.827E-02 
6.809E+01   3.032E+01  6.771E-02 
6.888E+01   3.036E+01  6.716E-02 
6.968E+01   3.040E+01  6.661E-02 
7.049E+01   3.044E+01  6.606E-02 
7.130E+01   3.048E+01  6.552E-02 
7.213E+01   3.052E+01  6.498E-02 
7.297E+01   3.056E+01  6.444E-02 
7.381E+01   3.059E+01  6.391E-02 
7.467E+01   3.063E+01  6.338E-02 
7.554E+01   3.066E+01  6.286E-02 
7.641E+01   3.069E+01  6.233E-02 
7.730E+01   3.071E+01  6.182E-02 
7.820E+01   3.074E+01  6.130E-02 
7.910E+01   3.076E+01  6.079E-02 
8.002E+01   3.078E+01  6.029E-02 
8.095E+01   3.080E+01  5.979E-02 
8.189E+01   3.082E+01  5.929E-02 
8.284E+01   3.084E+01  5.879E-02 
8.380E+01   3.085E+01  5.830E-02 
8.477E+01   3.087E+01  5.781E-02 
8.575E+01   3.088E+01  5.733E-02 
8.675E+01   3.089E+01  5.685E-02 
8.775E+01   3.089E+01  5.637E-02 
8.877E+01   3.090E+01  5.589E-02 
8.980E+01   3.090E+01  5.542E-02 
9.084E+01   3.090E+01  5.496E-02 
9.190E+01   3.090E+01  5.449E-02 
9.296E+01   3.090E+01  5.403E-02 
9.404E+01   3.089E+01  5.357E-02 
9.513E+01   3.089E+01  5.312E-02 
9.624E+01   3.088E+01  5.267E-02 
9.735E+01   3.087E+01  5.222E-02 
9.848E+01   3.085E+01  5.178E-02 
9.962E+01   3.084E+01  5.134E-02 
1.008E+02   3.082E+01  5.090E-02 
1.019E+02   3.080E+01  5.047E-02 
1.031E+02   3.078E+01  5.004E-02 
1.043E+02   3.076E+01  4.961E-02 
1.055E+02   3.073E+01  4.919E-02 
1.068E+02   3.070E+01  4.877E-02 
1.080E+02   3.068E+01  4.835E-02 
1.093E+02   3.064E+01  4.793E-02 
1.105E+02   3.061E+01  4.752E-02 
1.118E+02   3.057E+01  4.711E-02 
1.131E+02   3.054E+01  4.671E-02 
1.144E+02   3.050E+01  4.631E-02 
1.157E+02   3.046E+01  4.591E-02 
1.171E+02   3.041E+01  4.551E-02 
1.184E+02   3.037E+01  4.512E-02 
1.198E+02   3.032E+01  4.473E-02 
1.212E+02   3.027E+01  4.434E-02 
1.226E+02   3.022E+01  4.396E-02 
1.240E+02   3.016E+01  4.358E-02 
1.255E+02   3.011E+01  4.320E-02 
1.269E+02   3.005E+01  4.282E-02 
1.284E+02   2.999E+01  4.245E-02 
1.299E+02   2.993E+01  4.208E-02 
1.314E+02   2.987E+01  4.172E-02 
1.329E+02   2.980E+01  4.135E-02 
1.345E+02   2.973E+01  4.099E-02 
1.360E+02   2.966E+01  4.063E-02 
1.376E+02   2.959E+01  4.028E-02 
1.392E+02   2.952E+01  3.993E-02 
1.408E+02   2.945E+01  3.958E-02 
1.424E+02   2.937E+01  3.923E-02 
1.441E+02   2.929E+01  3.889E-02 
1.458E+02   2.921E+01  3.855E-02 
1.475E+02   2.913E+01  3.821E-02 
1.492E+02   2.905E+01  3.787E-02 
1.509E+02   2.896E+01  3.754E-02 
1.526E+02   2.887E+01  3.721E-02 
1.544E+02   2.879E+01  3.688E-02 
1.562E+02   2.870E+01  3.656E-02 
1.580E+02   2.860E+01  3.623E-02 
1.598E+02   2.851E+01  3.591E-02 
1.617E+02   2.842E+01  3.560E-02 
1.636E+02   2.832E+01  3.528E-02 
1.655E+02   2.822E+01  3.497E-02 
1.674E+02   2.812E+01  3.466E-02 
1.693E+02   2.802E+01  3.435E-02 
1.713E+02   2.792E+01  3.405E-02 
1.733E+02   2.782E+01  3.375E-02 
1.753E+02   2.771E+01  3.345E-02 
1.773E+02   2.760E+01  3.315E-02 
1.794E+02   2.750E+01  3.285E-02 
1.815E+02   2.739E+01  3.256E-02 
1.836E+02   2.728E+01  3.227E-02 
1.857E+02   2.717E+01  3.198E-02 
1.879E+02   2.705E+01  3.170E-02 
1.900E+02   2.694E+01  3.142E-02 
1.922E+02   2.683E+01  3.113E-02 
1.945E+02   2.671E+01  3.086E-02 
1.967E+02   2.659E+01  3.058E-02 
1.990E+02   2.648E+01  3.031E-02 
2.013E+02   2.636E+01  3.003E-02 
2.036E+02   2.624E+01  2.977E-02 
2.060E+02   2.612E+01  2.950E-02 
2.084E+02   2.600E+01  2.923E-02 
2.108E+02   2.588E+01  2.897E-02 
2.133E+02   2.575E+01  2.871E-02 
2.157E+02   2.563E+01  2.845E-02 
2.182E+02   2.550E+01  2.820E-02 
2.208E+02   2.538E+01  2.794E-02 
2.233E+02   2.525E+01  2.769E-02 
2.259E+02   2.513E+01  2.744E-02 
2.285E+02   2.500E+01  2.719E-02 
2.312E+02   2.487E+01  2.695E-02 
2.339E+02   2.474E+01  2.670E-02 
2.366E+02   2.462E+01  2.646E-02 
2.393E+02   2.449E+01  2.622E-02 
2.421E+02   2.436E+01  2.598E-02 
2.449E+02   2.423E+01  2.575E-02 
2.478E+02   2.410E+01  2.551E-02 
2.506E+02   2.397E+01  2.528E-02 
2.535E+02   2.384E+01  2.505E-02 
2.565E+02   2.371E+01  2.483E-02 
2.595E+02   2.358E+01  2.460E-02 
2.625E+02   2.344E+01  2.438E-02 
2.655E+02   2.331E+01  2.415E-02 
2.686E+02   2.318E+01  2.393E-02 
2.717E+02   2.305E+01  2.372E-02 
2.749E+02   2.292E+01  2.350E-02 
2.780E+02   2.278E+01  2.328E-02 
2.813E+02   2.265E+01  2.307E-02 
2.845E+02   2.252E+01  2.286E-02 
2.878E+02   2.239E+01  2.265E-02 
2.912E+02   2.226E+01  2.244E-02 
2.945E+02   2.213E+01  2.224E-02 
2.980E+02   2.199E+01  2.204E-02 
3.014E+02   2.186E+01  2.183E-02 
3.049E+02   2.173E+01  2.163E-02 
3.085E+02   2.160E+01  2.143E-02 
3.120E+02   2.147E+01  2.124E-02 
3.156E+02   2.134E+01  2.104E-02 
3.193E+02   2.121E+01  2.085E-02 
3.230E+02   2.108E+01  2.066E-02 
3.268E+02   2.095E+01  2.047E-02 
3.306E+02   2.082E+01  2.028E-02 
3.344E+02   2.069E+01  2.009E-02 
3.383E+02   2.056E+01  1.991E-02 
3.422E+02   2.043E+01  1.972E-02 
3.462E+02   2.030E+01  1.954E-02 
3.502E+02   2.017E+01  1.936E-02 
3.542E+02   2.005E+01  1.918E-02 
3.583E+02   1.992E+01  1.900E-02 
3.625E+02   1.979E+01  1.883E-02 
3.667E+02   1.967E+01  1.865E-02 
3.710E+02   1.954E+01  1.848E-02 
3.753E+02   1.942E+01  1.831E-02 
3.796E+02   1.929E+01  1.814E-02 
3.840E+02   1.917E+01  1.797E-02 
3.885E+02   1.905E+01  1.781E-02 
3.930E+02   1.892E+01  1.764E-02 
3.975E+02   1.880E+01  1.748E-02 
4.021E+02   1.868E+01  1.731E-02 
4.068E+02   1.856E+01  1.715E-02 
4.115E+02   1.844E+01  1.699E-02 
4.163E+02   1.832E+01  1.684E-02 
4.211E+02   1.820E+01  1.668E-02 
4.260E+02   1.808E+01  1.652E-02 
4.310E+02   1.796E+01  1.637E-02 
4.360E+02   1.785E+01  1.622E-02 
4.410E+02   1.773E+01  1.607E-02 
4.461E+02   1.761E+01  1.592E-02 
4.513E+02   1.750E+01  1.577E-02 
4.565E+02   1.738E+01  1.562E-02 
4.618E+02   1.727E+01  1.547E-02 
4.672E+02   1.716E+01  1.533E-02 
4.726E+02   1.704E+01  1.519E-02 
4.781E+02   1.693E+01  1.504E-02 
4.836E+02   1.682E+01  1.490E-02 
4.892E+02   1.671E+01  1.476E-02 
4.949E+02   1.660E+01  1.462E-02 
5.007E+02   1.649E+01  1.449E-02 
5.065E+02   1.638E+01  1.435E-02 
5.123E+02   1.627E+01  1.422E-02 
5.183E+02   1.617E+01  1.408E-02 
5.243E+02   1.606E+01  1.395E-02 
5.304E+02   1.595E+01  1.382E-02 
5.365E+02   1.585E+01  1.369E-02 
5.428E+02   1.574E+01  1.356E-02 
5.490E+02   1.564E+01  1.343E-02 
5.554E+02   1.554E+01  1.331E-02 
5.619E+02   1.544E+01  1.318E-02 
5.684E+02   1.533E+01  1.306E-02 
5.750E+02   1.523E+01  1.293E-02 
5.816E+02   1.513E+01  1.281E-02 
5.884E+02   1.503E+01  1.269E-02 
5.952E+02   1.493E+01  1.257E-02 
6.021E+02   1.484E+01  1.245E-02 
6.091E+02   1.474E+01  1.233E-02 
6.162E+02   1.464E+01  1.222E-02 
6.233E+02   1.455E+01  1.210E-02 
6.305E+02   1.445E+01  1.199E-02 
6.378E+02   1.436E+01  1.187E-02 
6.452E+02   1.426E+01  1.176E-02 
6.527E+02   1.417E+01  1.165E-02 
6.603E+02   1.408E+01  1.154E-02 
6.680E+02   1.398E+01  1.143E-02 
6.757E+02   1.389E+01  1.132E-02 
6.835E+02   1.380E+01  1.121E-02 
6.915E+02   1.371E+01  1.111E-02 
6.995E+02   1.362E+01  1.100E-02 
7.076E+02   1.353E+01  1.090E-02 
7.158E+02   1.344E+01  1.079E-02 
7.241E+02   1.336E+01  1.069E-02 
7.325E+02   1.327E+01  1.059E-02 
7.410E+02   1.318E+01  1.049E-02 
7.496E+02   1.310E+01  1.039E-02 
7.583E+02   1.301E+01  1.029E-02 
7.671E+02   1.293E+01  1.019E-02 
7.760E+02   1.284E+01  1.009E-02 
7.850E+02   1.276E+01  9.999E-03 
7.941E+02   1.267E+01  9.903E-03 
8.033E+02   1.259E+01  9.809E-03 
8.126E+02   1.251E+01  9.715E-03 
8.221E+02   1.243E+01  9.622E-03 
8.316E+02   1.235E+01  9.530E-03 
