Ion = Helium      . Mass = 4.0026
Tgt = Ag (Solid). Density = 10.473 g/cm3
Stopping Units =  eV/(1E15 atoms/cm2)
Energy(keV)  S(Elec)    S(Nuc)
1.000E+00   4.858E+00  2.504E+00 
1.013E+00   4.890E+00  2.509E+00 
1.026E+00   4.921E+00  2.514E+00 
1.039E+00   4.953E+00  2.519E+00 
1.053E+00   4.985E+00  2.523E+00 
1.067E+00   5.017E+00  2.528E+00 
1.081E+00   5.050E+00  2.533E+00 
1.095E+00   5.083E+00  2.537E+00 
1.109E+00   5.116E+00  2.542E+00 
1.123E+00   5.149E+00  2.546E+00 
1.138E+00   5.182E+00  2.551E+00 
1.153E+00   5.216E+00  2.555E+00 
1.168E+00   5.249E+00  2.560E+00 
1.183E+00   5.283E+00  2.564E+00 
1.198E+00   5.318E+00  2.568E+00 
1.214E+00   5.352E+00  2.573E+00 
1.229E+00   5.387E+00  2.577E+00 
1.245E+00   5.422E+00  2.581E+00 
1.262E+00   5.457E+00  2.585E+00 
1.278E+00   5.492E+00  2.589E+00 
1.295E+00   5.528E+00  2.593E+00 
1.311E+00   5.563E+00  2.597E+00 
1.329E+00   5.600E+00  2.601E+00 
1.346E+00   5.636E+00  2.605E+00 
1.363E+00   5.672E+00  2.609E+00 
1.381E+00   5.709E+00  2.613E+00 
1.399E+00   5.746E+00  2.617E+00 
1.417E+00   5.783E+00  2.620E+00 
1.436E+00   5.821E+00  2.624E+00 
1.454E+00   5.858E+00  2.628E+00 
1.473E+00   5.896E+00  2.631E+00 
1.492E+00   5.935E+00  2.635E+00 
1.512E+00   5.973E+00  2.638E+00 
1.531E+00   6.012E+00  2.642E+00 
1.551E+00   6.051E+00  2.645E+00 
1.571E+00   6.090E+00  2.648E+00 
1.592E+00   6.129E+00  2.652E+00 
1.612E+00   6.169E+00  2.655E+00 
1.633E+00   6.209E+00  2.658E+00 
1.655E+00   6.249E+00  2.661E+00 
1.676E+00   6.290E+00  2.664E+00 
1.698E+00   6.330E+00  2.667E+00 
1.720E+00   6.371E+00  2.670E+00 
1.742E+00   6.413E+00  2.673E+00 
1.765E+00   6.454E+00  2.676E+00 
1.788E+00   6.496E+00  2.678E+00 
1.811E+00   6.538E+00  2.681E+00 
1.835E+00   6.580E+00  2.684E+00 
1.859E+00   6.623E+00  2.686E+00 
1.883E+00   6.666E+00  2.689E+00 
1.907E+00   6.709E+00  2.692E+00 
1.932E+00   6.753E+00  2.694E+00 
1.957E+00   6.796E+00  2.696E+00 
1.983E+00   6.840E+00  2.699E+00 
2.008E+00   6.885E+00  2.701E+00 
2.034E+00   6.929E+00  2.703E+00 
2.061E+00   6.974E+00  2.705E+00 
2.088E+00   7.019E+00  2.707E+00 
2.115E+00   7.065E+00  2.709E+00 
2.142E+00   7.110E+00  2.711E+00 
2.170E+00   7.157E+00  2.713E+00 
2.198E+00   7.203E+00  2.715E+00 
2.227E+00   7.250E+00  2.717E+00 
2.256E+00   7.296E+00  2.719E+00 
2.285E+00   7.344E+00  2.720E+00 
2.315E+00   7.391E+00  2.722E+00 
2.345E+00   7.439E+00  2.723E+00 
2.375E+00   7.487E+00  2.725E+00 
2.406E+00   7.536E+00  2.726E+00 
2.438E+00   7.585E+00  2.728E+00 
2.469E+00   7.634E+00  2.729E+00 
2.501E+00   7.683E+00  2.730E+00 
2.534E+00   7.733E+00  2.731E+00 
2.567E+00   7.783E+00  2.732E+00 
2.600E+00   7.834E+00  2.733E+00 
2.634E+00   7.884E+00  2.734E+00 
2.668E+00   7.935E+00  2.735E+00 
2.703E+00   7.987E+00  2.736E+00 
2.738E+00   8.038E+00  2.737E+00 
2.773E+00   8.091E+00  2.738E+00 
2.810E+00   8.143E+00  2.738E+00 
2.846E+00   8.196E+00  2.739E+00 
2.883E+00   8.249E+00  2.739E+00 
2.921E+00   8.302E+00  2.740E+00 
2.958E+00   8.356E+00  2.740E+00 
2.997E+00   8.410E+00  2.741E+00 
3.036E+00   8.465E+00  2.741E+00 
3.075E+00   8.519E+00  2.741E+00 
3.115E+00   8.575E+00  2.741E+00 
3.156E+00   8.630E+00  2.741E+00 
3.197E+00   8.686E+00  2.741E+00 
3.238E+00   8.742E+00  2.741E+00 
3.280E+00   8.799E+00  2.741E+00 
3.323E+00   8.856E+00  2.741E+00 
3.366E+00   8.913E+00  2.740E+00 
3.410E+00   8.971E+00  2.740E+00 
3.454E+00   9.029E+00  2.739E+00 
3.499E+00   9.088E+00  2.739E+00 
3.545E+00   9.146E+00  2.738E+00 
3.591E+00   9.206E+00  2.738E+00 
3.637E+00   9.265E+00  2.737E+00 
3.685E+00   9.325E+00  2.736E+00 
3.733E+00   9.386E+00  2.735E+00 
3.781E+00   9.447E+00  2.734E+00 
3.830E+00   9.508E+00  2.733E+00 
3.880E+00   9.569E+00  2.732E+00 
3.930E+00   9.631E+00  2.731E+00 
3.982E+00   9.694E+00  2.730E+00 
4.033E+00   9.756E+00  2.728E+00 
4.086E+00   9.820E+00  2.727E+00 
4.139E+00   9.883E+00  2.726E+00 
4.193E+00   9.947E+00  2.724E+00 
4.247E+00   1.001E+01  2.722E+00 
4.302E+00   1.008E+01  2.721E+00 
4.358E+00   1.014E+01  2.719E+00 
4.415E+00   1.021E+01  2.717E+00 
4.472E+00   1.027E+01  2.715E+00 
4.530E+00   1.034E+01  2.713E+00 
4.589E+00   1.041E+01  2.711E+00 
4.649E+00   1.047E+01  2.709E+00 
4.709E+00   1.054E+01  2.707E+00 
4.770E+00   1.061E+01  2.705E+00 
4.832E+00   1.068E+01  2.703E+00 
4.895E+00   1.075E+01  2.700E+00 
4.959E+00   1.082E+01  2.698E+00 
5.023E+00   1.089E+01  2.695E+00 
5.089E+00   1.096E+01  2.693E+00 
5.155E+00   1.103E+01  2.690E+00 
5.222E+00   1.110E+01  2.687E+00 
5.290E+00   1.117E+01  2.684E+00 
5.358E+00   1.125E+01  2.681E+00 
5.428E+00   1.132E+01  2.678E+00 
5.499E+00   1.139E+01  2.675E+00 
5.570E+00   1.147E+01  2.672E+00 
5.642E+00   1.154E+01  2.669E+00 
5.716E+00   1.161E+01  2.666E+00 
5.790E+00   1.169E+01  2.662E+00 
5.865E+00   1.177E+01  2.659E+00 
5.942E+00   1.184E+01  2.655E+00 
6.019E+00   1.192E+01  2.652E+00 
6.097E+00   1.200E+01  2.648E+00 
6.176E+00   1.207E+01  2.644E+00 
6.256E+00   1.215E+01  2.641E+00 
6.338E+00   1.223E+01  2.637E+00 
6.420E+00   1.231E+01  2.633E+00 
6.504E+00   1.239E+01  2.629E+00 
6.588E+00   1.247E+01  2.625E+00 
6.674E+00   1.255E+01  2.621E+00 
6.760E+00   1.263E+01  2.616E+00 
6.848E+00   1.271E+01  2.612E+00 
6.937E+00   1.280E+01  2.608E+00 
7.027E+00   1.288E+01  2.603E+00 
7.119E+00   1.296E+01  2.599E+00 
7.211E+00   1.305E+01  2.594E+00 
7.305E+00   1.313E+01  2.589E+00 
7.400E+00   1.322E+01  2.585E+00 
7.496E+00   1.330E+01  2.580E+00 
7.594E+00   1.339E+01  2.575E+00 
7.692E+00   1.347E+01  2.570E+00 
7.792E+00   1.356E+01  2.565E+00 
7.894E+00   1.365E+01  2.560E+00 
7.996E+00   1.374E+01  2.555E+00 
8.100E+00   1.384E+01  2.550E+00 
8.205E+00   1.394E+01  2.544E+00 
8.312E+00   1.404E+01  2.539E+00 
8.420E+00   1.414E+01  2.534E+00 
8.529E+00   1.424E+01  2.528E+00 
8.640E+00   1.434E+01  2.523E+00 
8.753E+00   1.445E+01  2.517E+00 
8.866E+00   1.455E+01  2.511E+00 
8.982E+00   1.466E+01  2.506E+00 
9.098E+00   1.476E+01  2.500E+00 
9.217E+00   1.487E+01  2.494E+00 
9.336E+00   1.498E+01  2.488E+00 
9.458E+00   1.509E+01  2.482E+00 
9.581E+00   1.520E+01  2.476E+00 
9.705E+00   1.531E+01  2.470E+00 
9.831E+00   1.542E+01  2.464E+00 
9.959E+00   1.553E+01  2.457E+00 
1.009E+01   1.564E+01  2.451E+00 
1.022E+01   1.576E+01  2.445E+00 
1.035E+01   1.587E+01  2.438E+00 
1.049E+01   1.598E+01  2.432E+00 
1.062E+01   1.610E+01  2.425E+00 
1.076E+01   1.622E+01  2.418E+00 
1.090E+01   1.634E+01  2.412E+00 
1.104E+01   1.645E+01  2.405E+00 
1.119E+01   1.657E+01  2.398E+00 
1.133E+01   1.669E+01  2.391E+00 
1.148E+01   1.682E+01  2.384E+00 
1.163E+01   1.694E+01  2.377E+00 
1.178E+01   1.706E+01  2.370E+00 
1.193E+01   1.718E+01  2.363E+00 
1.209E+01   1.731E+01  2.356E+00 
1.224E+01   1.744E+01  2.349E+00 
1.240E+01   1.756E+01  2.342E+00 
1.256E+01   1.769E+01  2.334E+00 
1.273E+01   1.782E+01  2.327E+00 
1.289E+01   1.795E+01  2.320E+00 
1.306E+01   1.808E+01  2.312E+00 
1.323E+01   1.821E+01  2.305E+00 
1.340E+01   1.834E+01  2.297E+00 
1.358E+01   1.848E+01  2.289E+00 
1.375E+01   1.861E+01  2.282E+00 
1.393E+01   1.875E+01  2.274E+00 
1.411E+01   1.888E+01  2.266E+00 
1.430E+01   1.902E+01  2.259E+00 
1.448E+01   1.916E+01  2.251E+00 
1.467E+01   1.930E+01  2.243E+00 
1.486E+01   1.944E+01  2.235E+00 
1.505E+01   1.958E+01  2.227E+00 
1.525E+01   1.972E+01  2.219E+00 
1.545E+01   1.987E+01  2.211E+00 
1.565E+01   2.001E+01  2.203E+00 
1.585E+01   2.016E+01  2.195E+00 
1.606E+01   2.031E+01  2.186E+00 
1.627E+01   2.045E+01  2.178E+00 
1.648E+01   2.060E+01  2.170E+00 
1.669E+01   2.075E+01  2.162E+00 
1.691E+01   2.090E+01  2.153E+00 
1.713E+01   2.106E+01  2.145E+00 
1.735E+01   2.121E+01  2.136E+00 
1.758E+01   2.137E+01  2.128E+00 
1.781E+01   2.152E+01  2.119E+00 
1.804E+01   2.168E+01  2.111E+00 
1.827E+01   2.184E+01  2.102E+00 
1.851E+01   2.200E+01  2.094E+00 
1.875E+01   2.216E+01  2.085E+00 
1.899E+01   2.232E+01  2.077E+00 
1.924E+01   2.248E+01  2.068E+00 
1.949E+01   2.264E+01  2.059E+00 
1.974E+01   2.281E+01  2.050E+00 
2.000E+01   2.298E+01  2.042E+00 
2.026E+01   2.314E+01  2.033E+00 
2.052E+01   2.331E+01  2.024E+00 
2.079E+01   2.348E+01  2.015E+00 
2.106E+01   2.365E+01  2.006E+00 
2.133E+01   2.383E+01  1.997E+00 
2.161E+01   2.400E+01  1.988E+00 
2.189E+01   2.418E+01  1.980E+00 
2.218E+01   2.435E+01  1.971E+00 
2.247E+01   2.453E+01  1.962E+00 
2.276E+01   2.471E+01  1.953E+00 
2.305E+01   2.489E+01  1.944E+00 
2.335E+01   2.507E+01  1.934E+00 
2.366E+01   2.525E+01  1.925E+00 
2.396E+01   2.544E+01  1.916E+00 
2.428E+01   2.562E+01  1.907E+00 
2.459E+01   2.581E+01  1.898E+00 
2.491E+01   2.600E+01  1.889E+00 
2.523E+01   2.619E+01  1.880E+00 
2.556E+01   2.638E+01  1.871E+00 
2.589E+01   2.657E+01  1.862E+00 
2.623E+01   2.676E+01  1.852E+00 
2.657E+01   2.696E+01  1.843E+00 
2.692E+01   2.715E+01  1.834E+00 
2.727E+01   2.735E+01  1.825E+00 
2.762E+01   2.755E+01  1.816E+00 
2.798E+01   2.775E+01  1.806E+00 
2.834E+01   2.795E+01  1.797E+00 
2.871E+01   2.816E+01  1.788E+00 
2.909E+01   2.836E+01  1.779E+00 
2.946E+01   2.857E+01  1.769E+00 
2.985E+01   2.878E+01  1.760E+00 
3.023E+01   2.899E+01  1.751E+00 
3.063E+01   2.920E+01  1.742E+00 
3.103E+01   2.941E+01  1.732E+00 
3.143E+01   2.962E+01  1.723E+00 
3.184E+01   2.984E+01  1.714E+00 
3.225E+01   3.005E+01  1.704E+00 
3.267E+01   3.027E+01  1.695E+00 
3.309E+01   3.049E+01  1.686E+00 
3.352E+01   3.071E+01  1.677E+00 
3.396E+01   3.094E+01  1.667E+00 
3.440E+01   3.116E+01  1.658E+00 
3.485E+01   3.139E+01  1.649E+00 
3.530E+01   3.161E+01  1.640E+00 
3.576E+01   3.184E+01  1.630E+00 
3.623E+01   3.207E+01  1.621E+00 
3.670E+01   3.230E+01  1.612E+00 
3.717E+01   3.254E+01  1.603E+00 
3.766E+01   3.277E+01  1.593E+00 
3.815E+01   3.301E+01  1.584E+00 
3.864E+01   3.325E+01  1.575E+00 
3.914E+01   3.349E+01  1.566E+00 
3.965E+01   3.373E+01  1.557E+00 
4.017E+01   3.397E+01  1.547E+00 
4.069E+01   3.422E+01  1.538E+00 
4.122E+01   3.447E+01  1.529E+00 
4.175E+01   3.471E+01  1.520E+00 
4.230E+01   3.496E+01  1.511E+00 
4.285E+01   3.521E+01  1.502E+00 
4.340E+01   3.547E+01  1.493E+00 
4.397E+01   3.572E+01  1.483E+00 
4.454E+01   3.598E+01  1.474E+00 
4.512E+01   3.624E+01  1.465E+00 
4.570E+01   3.650E+01  1.456E+00 
4.630E+01   3.676E+01  1.447E+00 
4.690E+01   3.702E+01  1.438E+00 
4.751E+01   3.729E+01  1.429E+00 
4.813E+01   3.755E+01  1.420E+00 
4.875E+01   3.782E+01  1.411E+00 
4.939E+01   3.809E+01  1.402E+00 
5.003E+01   3.836E+01  1.394E+00 
5.068E+01   3.864E+01  1.385E+00 
5.134E+01   3.891E+01  1.376E+00 
5.200E+01   3.919E+01  1.367E+00 
5.268E+01   3.947E+01  1.358E+00 
5.336E+01   3.975E+01  1.349E+00 
5.406E+01   4.003E+01  1.340E+00 
5.476E+01   4.032E+01  1.332E+00 
5.547E+01   4.060E+01  1.323E+00 
5.619E+01   4.089E+01  1.314E+00 
5.692E+01   4.118E+01  1.306E+00 
5.766E+01   4.147E+01  1.297E+00 
5.841E+01   4.176E+01  1.288E+00 
5.917E+01   4.206E+01  1.280E+00 
5.994E+01   4.236E+01  1.271E+00 
6.072E+01   4.265E+01  1.263E+00 
6.151E+01   4.295E+01  1.254E+00 
6.231E+01   4.326E+01  1.246E+00 
6.312E+01   4.356E+01  1.237E+00 
6.394E+01   4.387E+01  1.229E+00 
6.477E+01   4.417E+01  1.220E+00 
6.561E+01   4.448E+01  1.212E+00 
6.646E+01   4.479E+01  1.203E+00 
6.733E+01   4.511E+01  1.195E+00 
6.820E+01   4.542E+01  1.187E+00 
6.909E+01   4.574E+01  1.178E+00 
6.999E+01   4.606E+01  1.170E+00 
7.090E+01   4.638E+01  1.162E+00 
7.182E+01   4.670E+01  1.154E+00 
7.275E+01   4.702E+01  1.146E+00 
7.370E+01   4.735E+01  1.138E+00 
7.465E+01   4.768E+01  1.129E+00 
7.562E+01   4.801E+01  1.121E+00 
7.661E+01   4.834E+01  1.113E+00 
7.760E+01   4.867E+01  1.105E+00 
7.861E+01   4.901E+01  1.097E+00 
7.963E+01   4.934E+01  1.089E+00 
8.067E+01   4.968E+01  1.082E+00 
8.172E+01   5.002E+01  1.074E+00 
8.278E+01   5.036E+01  1.066E+00 
8.385E+01   5.071E+01  1.058E+00 
8.494E+01   5.105E+01  1.050E+00 
8.605E+01   5.140E+01  1.043E+00 
8.717E+01   5.175E+01  1.035E+00 
8.830E+01   5.210E+01  1.027E+00 
8.945E+01   5.245E+01  1.020E+00 
9.061E+01   5.281E+01  1.012E+00 
9.179E+01   5.316E+01  1.005E+00 
9.298E+01   5.352E+01  9.970E-01 
9.419E+01   5.388E+01  9.895E-01 
9.541E+01   5.425E+01  9.821E-01 
9.665E+01   5.461E+01  9.746E-01 
9.791E+01   5.497E+01  9.673E-01 
9.918E+01   5.534E+01  9.599E-01 
1.005E+02   5.571E+01  9.526E-01 
1.018E+02   5.608E+01  9.454E-01 
1.031E+02   5.645E+01  9.381E-01 
1.044E+02   5.683E+01  9.309E-01 
1.058E+02   5.720E+01  9.238E-01 
1.072E+02   5.758E+01  9.166E-01 
1.086E+02   5.796E+01  9.096E-01 
1.100E+02   5.834E+01  9.025E-01 
1.114E+02   5.872E+01  8.955E-01 
1.129E+02   5.911E+01  8.885E-01 
1.143E+02   5.949E+01  8.816E-01 
1.158E+02   5.988E+01  8.747E-01 
1.173E+02   6.027E+01  8.678E-01 
1.188E+02   6.066E+01  8.610E-01 
1.204E+02   6.105E+01  8.542E-01 
1.219E+02   6.144E+01  8.475E-01 
1.235E+02   6.184E+01  8.408E-01 
1.251E+02   6.223E+01  8.341E-01 
1.268E+02   6.263E+01  8.274E-01 
1.284E+02   6.303E+01  8.208E-01 
1.301E+02   6.343E+01  8.143E-01 
1.318E+02   6.384E+01  8.077E-01 
1.335E+02   6.424E+01  8.013E-01 
1.352E+02   6.464E+01  7.948E-01 
1.370E+02   6.505E+01  7.884E-01 
1.388E+02   6.546E+01  7.820E-01 
1.406E+02   6.587E+01  7.757E-01 
1.424E+02   6.628E+01  7.694E-01 
1.442E+02   6.669E+01  7.631E-01 
1.461E+02   6.710E+01  7.569E-01 
1.480E+02   6.752E+01  7.507E-01 
1.499E+02   6.793E+01  7.446E-01 
1.519E+02   6.835E+01  7.384E-01 
1.539E+02   6.877E+01  7.324E-01 
1.559E+02   6.919E+01  7.263E-01 
1.579E+02   6.961E+01  7.203E-01 
1.599E+02   7.003E+01  7.144E-01 
1.620E+02   7.045E+01  7.084E-01 
1.641E+02   7.087E+01  7.025E-01 
1.662E+02   7.130E+01  6.967E-01 
1.684E+02   7.172E+01  6.909E-01 
1.706E+02   7.215E+01  6.851E-01 
1.728E+02   7.257E+01  6.794E-01 
1.751E+02   7.300E+01  6.737E-01 
1.773E+02   7.343E+01  6.680E-01 
1.796E+02   7.385E+01  6.624E-01 
1.820E+02   7.428E+01  6.568E-01 
1.843E+02   7.471E+01  6.512E-01 
1.867E+02   7.514E+01  6.457E-01 
1.892E+02   7.557E+01  6.402E-01 
1.916E+02   7.600E+01  6.348E-01 
1.941E+02   7.644E+01  6.294E-01 
1.966E+02   7.687E+01  6.240E-01 
1.992E+02   7.730E+01  6.186E-01 
2.018E+02   7.773E+01  6.133E-01 
2.044E+02   7.817E+01  6.081E-01 
2.071E+02   7.860E+01  6.029E-01 
2.097E+02   7.903E+01  5.977E-01 
2.125E+02   7.946E+01  5.925E-01 
2.152E+02   7.990E+01  5.874E-01 
2.180E+02   8.033E+01  5.823E-01 
2.209E+02   8.076E+01  5.772E-01 
2.237E+02   8.120E+01  5.722E-01 
2.266E+02   8.163E+01  5.672E-01 
2.296E+02   8.206E+01  5.623E-01 
2.326E+02   8.249E+01  5.574E-01 
2.356E+02   8.292E+01  5.525E-01 
2.387E+02   8.335E+01  5.477E-01 
2.418E+02   8.378E+01  5.429E-01 
2.449E+02   8.421E+01  5.381E-01 
2.481E+02   8.464E+01  5.334E-01 
2.513E+02   8.507E+01  5.287E-01 
2.546E+02   8.550E+01  5.240E-01 
2.579E+02   8.592E+01  5.193E-01 
2.612E+02   8.635E+01  5.147E-01 
2.646E+02   8.677E+01  5.102E-01 
2.681E+02   8.720E+01  5.056E-01 
2.716E+02   8.762E+01  5.011E-01 
2.751E+02   8.804E+01  4.967E-01 
2.787E+02   8.846E+01  4.922E-01 
2.823E+02   8.888E+01  4.878E-01 
2.859E+02   8.929E+01  4.835E-01 
2.897E+02   8.971E+01  4.791E-01 
2.934E+02   9.012E+01  4.748E-01 
2.972E+02   9.053E+01  4.706E-01 
3.011E+02   9.094E+01  4.663E-01 
3.050E+02   9.135E+01  4.621E-01 
3.090E+02   9.175E+01  4.579E-01 
3.130E+02   9.216E+01  4.538E-01 
3.171E+02   9.256E+01  4.497E-01 
3.212E+02   9.296E+01  4.456E-01 
3.254E+02   9.336E+01  4.466E-01 
3.296E+02   9.375E+01  4.425E-01 
3.339E+02   9.414E+01  4.385E-01 
3.382E+02   9.453E+01  4.345E-01 
3.426E+02   9.492E+01  4.305E-01 
3.471E+02   9.530E+01  4.266E-01 
3.516E+02   9.568E+01  4.227E-01 
3.561E+02   9.606E+01  4.188E-01 
3.608E+02   9.643E+01  4.150E-01 
3.655E+02   9.681E+01  4.111E-01 
3.702E+02   9.717E+01  4.074E-01 
3.750E+02   9.754E+01  4.036E-01 
3.799E+02   9.790E+01  3.999E-01 
3.848E+02   9.826E+01  3.962E-01 
3.898E+02   9.861E+01  3.925E-01 
3.949E+02   9.896E+01  3.889E-01 
4.000E+02   9.931E+01  3.852E-01 
4.052E+02   9.965E+01  3.817E-01 
4.105E+02   9.999E+01  3.781E-01 
4.158E+02   1.003E+02  3.746E-01 
4.212E+02   1.007E+02  3.711E-01 
4.267E+02   1.010E+02  3.676E-01 
4.323E+02   1.013E+02  3.642E-01 
4.379E+02   1.016E+02  3.608E-01 
4.436E+02   1.019E+02  3.574E-01 
4.493E+02   1.022E+02  3.540E-01 
4.552E+02   1.026E+02  3.507E-01 
4.611E+02   1.029E+02  3.474E-01 
4.671E+02   1.031E+02  3.441E-01 
4.731E+02   1.034E+02  3.408E-01 
4.793E+02   1.037E+02  3.376E-01 
4.855E+02   1.040E+02  3.344E-01 
4.918E+02   1.043E+02  3.312E-01 
4.982E+02   1.045E+02  3.281E-01 
5.047E+02   1.048E+02  3.250E-01 
5.113E+02   1.051E+02  3.219E-01 
5.179E+02   1.053E+02  3.188E-01 
5.246E+02   1.056E+02  3.158E-01 
5.315E+02   1.058E+02  3.128E-01 
5.384E+02   1.060E+02  3.098E-01 
5.454E+02   1.063E+02  3.068E-01 
5.524E+02   1.065E+02  3.039E-01 
5.596E+02   1.067E+02  3.010E-01 
5.669E+02   1.069E+02  2.981E-01 
5.743E+02   1.071E+02  2.952E-01 
5.817E+02   1.073E+02  2.924E-01 
5.893E+02   1.075E+02  2.895E-01 
5.969E+02   1.077E+02  2.868E-01 
6.047E+02   1.079E+02  2.840E-01 
6.126E+02   1.080E+02  2.812E-01 
6.205E+02   1.082E+02  2.785E-01 
6.286E+02   1.084E+02  2.758E-01 
6.368E+02   1.085E+02  2.732E-01 
6.450E+02   1.087E+02  2.705E-01 
6.534E+02   1.088E+02  2.679E-01 
6.619E+02   1.089E+02  2.653E-01 
6.705E+02   1.091E+02  2.627E-01 
6.792E+02   1.092E+02  2.601E-01 
6.881E+02   1.093E+02  2.576E-01 
6.970E+02   1.094E+02  2.551E-01 
7.061E+02   1.095E+02  2.526E-01 
7.152E+02   1.096E+02  2.501E-01 
7.245E+02   1.096E+02  2.477E-01 
7.339E+02   1.097E+02  2.452E-01 
7.435E+02   1.098E+02  2.428E-01 
7.531E+02   1.098E+02  2.404E-01 
7.629E+02   1.099E+02  2.381E-01 
7.728E+02   1.099E+02  2.357E-01 
7.829E+02   1.100E+02  2.334E-01 
7.931E+02   1.100E+02  2.311E-01 
8.034E+02   1.100E+02  2.288E-01 
8.138E+02   1.100E+02  2.266E-01 
8.244E+02   1.100E+02  2.243E-01 
8.351E+02   1.100E+02  2.221E-01 
8.460E+02   1.100E+02  2.199E-01 
8.570E+02   1.100E+02  2.177E-01 
8.681E+02   1.100E+02  2.156E-01 
8.794E+02   1.100E+02  2.134E-01 
8.908E+02   1.099E+02  2.113E-01 
9.024E+02   1.099E+02  2.092E-01 
9.141E+02   1.098E+02  2.071E-01 
9.260E+02   1.098E+02  2.051E-01 
9.380E+02   1.097E+02  2.030E-01 
9.502E+02   1.096E+02  2.010E-01 
9.626E+02   1.095E+02  1.990E-01 
9.751E+02   1.094E+02  1.970E-01 
9.877E+02   1.093E+02  1.950E-01 
1.001E+03   1.092E+02  1.931E-01 
1.014E+03   1.091E+02  1.912E-01 
1.027E+03   1.090E+02  1.892E-01 
1.040E+03   1.089E+02  1.873E-01 
1.054E+03   1.087E+02  1.855E-01 
1.067E+03   1.086E+02  1.836E-01 
1.081E+03   1.084E+02  1.818E-01 
1.095E+03   1.083E+02  1.799E-01 
1.109E+03   1.081E+02  1.781E-01 
1.124E+03   1.079E+02  1.763E-01 
1.138E+03   1.078E+02  1.745E-01 
1.153E+03   1.076E+02  1.728E-01 
1.168E+03   1.074E+02  1.710E-01 
1.183E+03   1.072E+02  1.693E-01 
1.199E+03   1.070E+02  1.676E-01 
1.214E+03   1.068E+02  1.659E-01 
1.230E+03   1.065E+02  1.642E-01 
1.246E+03   1.063E+02  1.625E-01 
1.262E+03   1.061E+02  1.609E-01 
1.279E+03   1.058E+02  1.593E-01 
1.295E+03   1.056E+02  1.576E-01 
1.312E+03   1.053E+02  1.560E-01 
1.329E+03   1.051E+02  1.545E-01 
1.347E+03   1.048E+02  1.529E-01 
1.364E+03   1.045E+02  1.513E-01 
1.382E+03   1.042E+02  1.498E-01 
1.400E+03   1.040E+02  1.483E-01 
1.418E+03   1.037E+02  1.467E-01 
1.436E+03   1.034E+02  1.452E-01 
1.455E+03   1.031E+02  1.438E-01 
1.474E+03   1.028E+02  1.423E-01 
1.493E+03   1.025E+02  1.408E-01 
1.513E+03   1.021E+02  1.394E-01 
1.532E+03   1.018E+02  1.380E-01 
1.552E+03   1.015E+02  1.365E-01 
1.572E+03   1.011E+02  1.351E-01 
1.593E+03   1.008E+02  1.338E-01 
1.613E+03   1.005E+02  1.324E-01 
1.634E+03   1.001E+02  1.310E-01 
1.656E+03   9.975E+01  1.297E-01 
1.677E+03   9.938E+01  1.283E-01 
1.699E+03   9.902E+01  1.270E-01 
1.721E+03   9.865E+01  1.257E-01 
1.743E+03   9.827E+01  1.244E-01 
1.766E+03   9.790E+01  1.231E-01 
1.789E+03   9.751E+01  1.218E-01 
1.812E+03   9.712E+01  1.206E-01 
1.836E+03   9.673E+01  1.193E-01 
1.860E+03   9.634E+01  1.181E-01 
