Ion = Helium      . Mass = 4.0026
Tgt = Rh (Solid). Density = 12.399 g/cm3
Stopping Units =  eV/(1E15 atoms/cm2)
Energy(keV)  S(Elec)    S(Nuc)
1.000E+00   3.446E+00  2.571E+00 
1.013E+00   3.468E+00  2.575E+00 
1.026E+00   3.491E+00  2.580E+00 
1.039E+00   3.513E+00  2.585E+00 
1.053E+00   3.536E+00  2.589E+00 
1.067E+00   3.559E+00  2.594E+00 
1.081E+00   3.582E+00  2.598E+00 
1.095E+00   3.605E+00  2.603E+00 
1.109E+00   3.628E+00  2.607E+00 
1.123E+00   3.652E+00  2.612E+00 
1.138E+00   3.676E+00  2.616E+00 
1.153E+00   3.699E+00  2.620E+00 
1.168E+00   3.723E+00  2.624E+00 
1.183E+00   3.747E+00  2.629E+00 
1.198E+00   3.772E+00  2.633E+00 
1.214E+00   3.796E+00  2.637E+00 
1.229E+00   3.821E+00  2.641E+00 
1.245E+00   3.845E+00  2.645E+00 
1.262E+00   3.870E+00  2.649E+00 
1.278E+00   3.895E+00  2.653E+00 
1.295E+00   3.921E+00  2.657E+00 
1.311E+00   3.946E+00  2.660E+00 
1.329E+00   3.972E+00  2.664E+00 
1.346E+00   3.997E+00  2.668E+00 
1.363E+00   4.023E+00  2.672E+00 
1.381E+00   4.049E+00  2.675E+00 
1.399E+00   4.076E+00  2.679E+00 
1.417E+00   4.102E+00  2.682E+00 
1.436E+00   4.129E+00  2.686E+00 
1.454E+00   4.155E+00  2.689E+00 
1.473E+00   4.182E+00  2.692E+00 
1.492E+00   4.209E+00  2.696E+00 
1.512E+00   4.237E+00  2.699E+00 
1.531E+00   4.264E+00  2.702E+00 
1.551E+00   4.292E+00  2.705E+00 
1.571E+00   4.319E+00  2.708E+00 
1.592E+00   4.347E+00  2.711E+00 
1.612E+00   4.376E+00  2.714E+00 
1.633E+00   4.404E+00  2.717E+00 
1.655E+00   4.432E+00  2.720E+00 
1.676E+00   4.461E+00  2.723E+00 
1.698E+00   4.490E+00  2.726E+00 
1.720E+00   4.519E+00  2.728E+00 
1.742E+00   4.548E+00  2.731E+00 
1.765E+00   4.578E+00  2.733E+00 
1.788E+00   4.607E+00  2.736E+00 
1.811E+00   4.637E+00  2.738E+00 
1.835E+00   4.667E+00  2.741E+00 
1.859E+00   4.698E+00  2.743E+00 
1.883E+00   4.728E+00  2.745E+00 
1.907E+00   4.759E+00  2.748E+00 
1.932E+00   4.789E+00  2.750E+00 
1.957E+00   4.820E+00  2.752E+00 
1.983E+00   4.852E+00  2.754E+00 
2.008E+00   4.883E+00  2.756E+00 
2.034E+00   4.915E+00  2.758E+00 
2.061E+00   4.947E+00  2.760E+00 
2.088E+00   4.979E+00  2.762E+00 
2.115E+00   5.011E+00  2.763E+00 
2.142E+00   5.043E+00  2.765E+00 
2.170E+00   5.076E+00  2.767E+00 
2.198E+00   5.109E+00  2.768E+00 
2.227E+00   5.142E+00  2.770E+00 
2.256E+00   5.175E+00  2.771E+00 
2.285E+00   5.209E+00  2.772E+00 
2.315E+00   5.243E+00  2.774E+00 
2.345E+00   5.277E+00  2.775E+00 
2.375E+00   5.311E+00  2.776E+00 
2.406E+00   5.345E+00  2.777E+00 
2.438E+00   5.380E+00  2.778E+00 
2.469E+00   5.415E+00  2.779E+00 
2.501E+00   5.450E+00  2.780E+00 
2.534E+00   5.485E+00  2.781E+00 
2.567E+00   5.520E+00  2.782E+00 
2.600E+00   5.556E+00  2.782E+00 
2.634E+00   5.592E+00  2.783E+00 
2.668E+00   5.628E+00  2.784E+00 
2.703E+00   5.665E+00  2.784E+00 
2.738E+00   5.702E+00  2.785E+00 
2.773E+00   5.738E+00  2.785E+00 
2.810E+00   5.776E+00  2.785E+00 
2.846E+00   5.813E+00  2.786E+00 
2.883E+00   5.851E+00  2.786E+00 
2.921E+00   5.889E+00  2.786E+00 
2.958E+00   5.927E+00  2.786E+00 
2.997E+00   5.965E+00  2.786E+00 
3.036E+00   6.004E+00  2.786E+00 
3.075E+00   6.043E+00  2.786E+00 
3.115E+00   6.082E+00  2.785E+00 
3.156E+00   6.121E+00  2.785E+00 
3.197E+00   6.161E+00  2.785E+00 
3.238E+00   6.201E+00  2.784E+00 
3.280E+00   6.241E+00  2.784E+00 
3.323E+00   6.281E+00  2.783E+00 
3.366E+00   6.322E+00  2.782E+00 
3.410E+00   6.363E+00  2.782E+00 
3.454E+00   6.404E+00  2.781E+00 
3.499E+00   6.446E+00  2.780E+00 
3.545E+00   6.487E+00  2.779E+00 
3.591E+00   6.529E+00  2.778E+00 
3.637E+00   6.572E+00  2.777E+00 
3.685E+00   6.614E+00  2.776E+00 
3.733E+00   6.657E+00  2.774E+00 
3.781E+00   6.700E+00  2.773E+00 
3.830E+00   6.744E+00  2.772E+00 
3.880E+00   6.787E+00  2.770E+00 
3.930E+00   6.831E+00  2.769E+00 
3.982E+00   6.876E+00  2.767E+00 
4.033E+00   6.920E+00  2.765E+00 
4.086E+00   6.965E+00  2.764E+00 
4.139E+00   7.010E+00  2.762E+00 
4.193E+00   7.055E+00  2.760E+00 
4.247E+00   7.101E+00  2.758E+00 
4.302E+00   7.147E+00  2.756E+00 
4.358E+00   7.193E+00  2.754E+00 
4.415E+00   7.240E+00  2.751E+00 
4.472E+00   7.287E+00  2.749E+00 
4.530E+00   7.334E+00  2.747E+00 
4.589E+00   7.382E+00  2.744E+00 
4.649E+00   7.429E+00  2.742E+00 
4.709E+00   7.478E+00  2.739E+00 
4.770E+00   7.526E+00  2.737E+00 
4.832E+00   7.575E+00  2.734E+00 
4.895E+00   7.624E+00  2.731E+00 
4.959E+00   7.673E+00  2.728E+00 
5.023E+00   7.723E+00  2.725E+00 
5.089E+00   7.773E+00  2.722E+00 
5.155E+00   7.823E+00  2.719E+00 
5.222E+00   7.874E+00  2.716E+00 
5.290E+00   7.925E+00  2.713E+00 
5.358E+00   7.976E+00  2.710E+00 
5.428E+00   8.028E+00  2.706E+00 
5.499E+00   8.080E+00  2.703E+00 
5.570E+00   8.132E+00  2.699E+00 
5.642E+00   8.185E+00  2.696E+00 
5.716E+00   8.238E+00  2.692E+00 
5.790E+00   8.291E+00  2.688E+00 
5.865E+00   8.345E+00  2.684E+00 
5.942E+00   8.399E+00  2.680E+00 
6.019E+00   8.454E+00  2.676E+00 
6.097E+00   8.508E+00  2.672E+00 
6.176E+00   8.563E+00  2.668E+00 
6.256E+00   8.619E+00  2.664E+00 
6.338E+00   8.675E+00  2.660E+00 
6.420E+00   8.731E+00  2.655E+00 
6.504E+00   8.787E+00  2.651E+00 
6.588E+00   8.844E+00  2.646E+00 
6.674E+00   8.902E+00  2.642E+00 
6.760E+00   8.959E+00  2.637E+00 
6.848E+00   9.017E+00  2.633E+00 
6.937E+00   9.076E+00  2.628E+00 
7.027E+00   9.134E+00  2.623E+00 
7.119E+00   9.194E+00  2.618E+00 
7.211E+00   9.253E+00  2.613E+00 
7.305E+00   9.313E+00  2.608E+00 
7.400E+00   9.373E+00  2.603E+00 
7.496E+00   9.434E+00  2.598E+00 
7.594E+00   9.495E+00  2.592E+00 
7.692E+00   9.557E+00  2.587E+00 
7.792E+00   9.619E+00  2.582E+00 
7.894E+00   9.681E+00  2.576E+00 
7.996E+00   9.744E+00  2.571E+00 
8.100E+00   9.823E+00  2.565E+00 
8.205E+00   9.905E+00  2.559E+00 
8.312E+00   9.986E+00  2.554E+00 
8.420E+00   1.007E+01  2.548E+00 
8.529E+00   1.015E+01  2.542E+00 
8.640E+00   1.023E+01  2.536E+00 
8.753E+00   1.032E+01  2.530E+00 
8.866E+00   1.040E+01  2.524E+00 
8.982E+00   1.049E+01  2.518E+00 
9.098E+00   1.057E+01  2.512E+00 
9.217E+00   1.065E+01  2.505E+00 
9.336E+00   1.074E+01  2.499E+00 
9.458E+00   1.082E+01  2.493E+00 
9.581E+00   1.091E+01  2.486E+00 
9.705E+00   1.099E+01  2.480E+00 
9.831E+00   1.108E+01  2.473E+00 
9.959E+00   1.116E+01  2.466E+00 
1.009E+01   1.125E+01  2.460E+00 
1.022E+01   1.133E+01  2.453E+00 
1.035E+01   1.142E+01  2.446E+00 
1.049E+01   1.150E+01  2.439E+00 
1.062E+01   1.158E+01  2.432E+00 
1.076E+01   1.167E+01  2.425E+00 
1.090E+01   1.175E+01  2.418E+00 
1.104E+01   1.183E+01  2.411E+00 
1.119E+01   1.191E+01  2.404E+00 
1.133E+01   1.199E+01  2.397E+00 
1.148E+01   1.207E+01  2.389E+00 
1.163E+01   1.215E+01  2.382E+00 
1.178E+01   1.222E+01  2.375E+00 
1.193E+01   1.230E+01  2.367E+00 
1.209E+01   1.237E+01  2.360E+00 
1.224E+01   1.244E+01  2.352E+00 
1.240E+01   1.251E+01  2.345E+00 
1.256E+01   1.258E+01  2.337E+00 
1.273E+01   1.264E+01  2.329E+00 
1.289E+01   1.271E+01  2.321E+00 
1.306E+01   1.277E+01  2.314E+00 
1.323E+01   1.283E+01  2.306E+00 
1.340E+01   1.288E+01  2.298E+00 
1.358E+01   1.294E+01  2.290E+00 
1.375E+01   1.299E+01  2.282E+00 
1.393E+01   1.304E+01  2.274E+00 
1.411E+01   1.308E+01  2.266E+00 
1.430E+01   1.313E+01  2.258E+00 
1.448E+01   1.317E+01  2.250E+00 
1.467E+01   1.321E+01  2.241E+00 
1.486E+01   1.325E+01  2.233E+00 
1.505E+01   1.329E+01  2.225E+00 
1.525E+01   1.333E+01  2.216E+00 
1.545E+01   1.337E+01  2.208E+00 
1.565E+01   1.341E+01  2.200E+00 
1.585E+01   1.345E+01  2.191E+00 
1.606E+01   1.349E+01  2.183E+00 
1.627E+01   1.354E+01  2.174E+00 
1.648E+01   1.358E+01  2.166E+00 
1.669E+01   1.364E+01  2.157E+00 
1.691E+01   1.370E+01  2.148E+00 
1.713E+01   1.376E+01  2.140E+00 
1.735E+01   1.383E+01  2.131E+00 
1.758E+01   1.391E+01  2.122E+00 
1.781E+01   1.399E+01  2.114E+00 
1.804E+01   1.408E+01  2.105E+00 
1.827E+01   1.418E+01  2.096E+00 
1.851E+01   1.429E+01  2.087E+00 
1.875E+01   1.440E+01  2.078E+00 
1.899E+01   1.453E+01  2.069E+00 
1.924E+01   1.466E+01  2.060E+00 
1.949E+01   1.480E+01  2.051E+00 
1.974E+01   1.494E+01  2.042E+00 
2.000E+01   1.509E+01  2.033E+00 
2.026E+01   1.525E+01  2.024E+00 
2.052E+01   1.542E+01  2.015E+00 
2.079E+01   1.559E+01  2.006E+00 
2.106E+01   1.577E+01  1.997E+00 
2.133E+01   1.595E+01  1.988E+00 
2.161E+01   1.614E+01  1.979E+00 
2.189E+01   1.633E+01  1.970E+00 
2.218E+01   1.652E+01  1.960E+00 
2.247E+01   1.672E+01  1.951E+00 
2.276E+01   1.692E+01  1.942E+00 
2.305E+01   1.713E+01  1.933E+00 
2.335E+01   1.734E+01  1.923E+00 
2.366E+01   1.755E+01  1.914E+00 
2.396E+01   1.776E+01  1.905E+00 
2.428E+01   1.797E+01  1.896E+00 
2.459E+01   1.819E+01  1.886E+00 
2.491E+01   1.841E+01  1.877E+00 
2.523E+01   1.863E+01  1.868E+00 
2.556E+01   1.885E+01  1.858E+00 
2.589E+01   1.908E+01  1.849E+00 
2.623E+01   1.930E+01  1.840E+00 
2.657E+01   1.953E+01  1.830E+00 
2.692E+01   1.976E+01  1.821E+00 
2.727E+01   1.999E+01  1.811E+00 
2.762E+01   2.022E+01  1.802E+00 
2.798E+01   2.045E+01  1.793E+00 
2.834E+01   2.068E+01  1.783E+00 
2.871E+01   2.092E+01  1.774E+00 
2.909E+01   2.116E+01  1.764E+00 
2.946E+01   2.139E+01  1.755E+00 
2.985E+01   2.163E+01  1.746E+00 
3.023E+01   2.187E+01  1.736E+00 
3.063E+01   2.211E+01  1.727E+00 
3.103E+01   2.235E+01  1.717E+00 
3.143E+01   2.260E+01  1.708E+00 
3.184E+01   2.284E+01  1.699E+00 
3.225E+01   2.309E+01  1.689E+00 
3.267E+01   2.334E+01  1.680E+00 
3.309E+01   2.359E+01  1.670E+00 
3.352E+01   2.384E+01  1.661E+00 
3.396E+01   2.409E+01  1.652E+00 
3.440E+01   2.434E+01  1.642E+00 
3.485E+01   2.460E+01  1.633E+00 
3.530E+01   2.486E+01  1.623E+00 
3.576E+01   2.511E+01  1.614E+00 
3.623E+01   2.537E+01  1.605E+00 
3.670E+01   2.564E+01  1.595E+00 
3.717E+01   2.590E+01  1.586E+00 
3.766E+01   2.616E+01  1.577E+00 
3.815E+01   2.643E+01  1.567E+00 
3.864E+01   2.670E+01  1.558E+00 
3.914E+01   2.697E+01  1.549E+00 
3.965E+01   2.724E+01  1.540E+00 
4.017E+01   2.751E+01  1.530E+00 
4.069E+01   2.779E+01  1.521E+00 
4.122E+01   2.807E+01  1.512E+00 
4.175E+01   2.835E+01  1.503E+00 
4.230E+01   2.863E+01  1.493E+00 
4.285E+01   2.891E+01  1.484E+00 
4.340E+01   2.920E+01  1.475E+00 
4.397E+01   2.948E+01  1.466E+00 
4.454E+01   2.977E+01  1.457E+00 
4.512E+01   3.007E+01  1.448E+00 
4.570E+01   3.036E+01  1.439E+00 
4.630E+01   3.065E+01  1.429E+00 
4.690E+01   3.095E+01  1.420E+00 
4.751E+01   3.125E+01  1.411E+00 
4.813E+01   3.155E+01  1.402E+00 
4.875E+01   3.186E+01  1.393E+00 
4.939E+01   3.216E+01  1.384E+00 
5.003E+01   3.247E+01  1.375E+00 
5.068E+01   3.278E+01  1.367E+00 
5.134E+01   3.310E+01  1.358E+00 
5.200E+01   3.341E+01  1.349E+00 
5.268E+01   3.373E+01  1.340E+00 
5.336E+01   3.405E+01  1.331E+00 
5.406E+01   3.437E+01  1.322E+00 
5.476E+01   3.470E+01  1.313E+00 
5.547E+01   3.502E+01  1.305E+00 
5.619E+01   3.535E+01  1.296E+00 
5.692E+01   3.568E+01  1.287E+00 
5.766E+01   3.602E+01  1.279E+00 
5.841E+01   3.636E+01  1.270E+00 
5.917E+01   3.669E+01  1.261E+00 
5.994E+01   3.704E+01  1.253E+00 
6.072E+01   3.738E+01  1.244E+00 
6.151E+01   3.773E+01  1.236E+00 
6.231E+01   3.808E+01  1.227E+00 
6.312E+01   3.843E+01  1.219E+00 
6.394E+01   3.878E+01  1.210E+00 
6.477E+01   3.914E+01  1.202E+00 
6.561E+01   3.950E+01  1.193E+00 
6.646E+01   3.986E+01  1.185E+00 
6.733E+01   4.022E+01  1.177E+00 
6.820E+01   4.059E+01  1.168E+00 
6.909E+01   4.096E+01  1.160E+00 
6.999E+01   4.133E+01  1.152E+00 
7.090E+01   4.171E+01  1.144E+00 
7.182E+01   4.208E+01  1.136E+00 
7.275E+01   4.246E+01  1.127E+00 
7.370E+01   4.284E+01  1.119E+00 
7.465E+01   4.323E+01  1.111E+00 
7.562E+01   4.362E+01  1.103E+00 
7.661E+01   4.401E+01  1.095E+00 
7.760E+01   4.440E+01  1.087E+00 
7.861E+01   4.480E+01  1.079E+00 
7.963E+01   4.519E+01  1.071E+00 
8.067E+01   4.559E+01  1.064E+00 
8.172E+01   4.600E+01  1.056E+00 
8.278E+01   4.640E+01  1.048E+00 
8.385E+01   4.681E+01  1.040E+00 
8.494E+01   4.722E+01  1.032E+00 
8.605E+01   4.764E+01  1.025E+00 
8.717E+01   4.805E+01  1.017E+00 
8.830E+01   4.847E+01  1.009E+00 
8.945E+01   4.890E+01  1.002E+00 
9.061E+01   4.932E+01  9.943E-01 
9.179E+01   4.975E+01  9.868E-01 
9.298E+01   5.018E+01  9.793E-01 
9.419E+01   5.061E+01  9.719E-01 
9.541E+01   5.104E+01  9.645E-01 
9.665E+01   5.148E+01  9.571E-01 
9.791E+01   5.192E+01  9.498E-01 
9.918E+01   5.236E+01  9.425E-01 
1.005E+02   5.281E+01  9.353E-01 
1.018E+02   5.325E+01  9.281E-01 
1.031E+02   5.370E+01  9.209E-01 
1.044E+02   5.416E+01  9.137E-01 
1.058E+02   5.461E+01  9.066E-01 
1.072E+02   5.507E+01  8.996E-01 
1.086E+02   5.553E+01  8.925E-01 
1.100E+02   5.599E+01  8.855E-01 
1.114E+02   5.646E+01  8.786E-01 
1.129E+02   5.692E+01  8.717E-01 
1.143E+02   5.739E+01  8.648E-01 
1.158E+02   5.786E+01  8.580E-01 
1.173E+02   5.834E+01  8.512E-01 
1.188E+02   5.881E+01  8.444E-01 
1.204E+02   5.929E+01  8.377E-01 
1.219E+02   5.977E+01  8.310E-01 
1.235E+02   6.025E+01  8.243E-01 
1.251E+02   6.074E+01  8.177E-01 
1.268E+02   6.123E+01  8.112E-01 
1.284E+02   6.172E+01  8.046E-01 
1.301E+02   6.221E+01  7.981E-01 
1.318E+02   6.270E+01  7.917E-01 
1.335E+02   6.319E+01  7.852E-01 
1.352E+02   6.369E+01  7.789E-01 
1.370E+02   6.419E+01  7.725E-01 
1.388E+02   6.469E+01  7.662E-01 
1.406E+02   6.519E+01  7.599E-01 
1.424E+02   6.570E+01  7.537E-01 
1.442E+02   6.620E+01  7.475E-01 
1.461E+02   6.671E+01  7.414E-01 
1.480E+02   6.722E+01  7.353E-01 
1.499E+02   6.773E+01  7.292E-01 
1.519E+02   6.824E+01  7.231E-01 
1.539E+02   6.875E+01  7.171E-01 
1.559E+02   6.927E+01  7.112E-01 
1.579E+02   6.979E+01  7.052E-01 
1.599E+02   7.030E+01  6.994E-01 
1.620E+02   7.082E+01  6.935E-01 
1.641E+02   7.134E+01  6.877E-01 
1.662E+02   7.186E+01  6.819E-01 
1.684E+02   7.238E+01  6.762E-01 
1.706E+02   7.291E+01  6.705E-01 
1.728E+02   7.343E+01  6.648E-01 
1.751E+02   7.395E+01  6.592E-01 
1.773E+02   7.448E+01  6.536E-01 
1.796E+02   7.500E+01  6.480E-01 
1.820E+02   7.553E+01  6.425E-01 
1.843E+02   7.605E+01  6.371E-01 
1.867E+02   7.658E+01  6.316E-01 
1.892E+02   7.711E+01  6.262E-01 
1.916E+02   7.764E+01  6.208E-01 
1.941E+02   7.816E+01  6.155E-01 
1.966E+02   7.869E+01  6.102E-01 
1.992E+02   7.922E+01  6.050E-01 
2.018E+02   7.975E+01  5.997E-01 
2.044E+02   8.027E+01  5.945E-01 
2.071E+02   8.080E+01  5.894E-01 
2.097E+02   8.133E+01  5.843E-01 
2.125E+02   8.185E+01  5.792E-01 
2.152E+02   8.238E+01  5.742E-01 
2.180E+02   8.290E+01  5.691E-01 
2.209E+02   8.343E+01  5.642E-01 
2.237E+02   8.395E+01  5.592E-01 
2.266E+02   8.447E+01  5.543E-01 
2.296E+02   8.499E+01  5.495E-01 
2.326E+02   8.551E+01  5.446E-01 
2.356E+02   8.603E+01  5.398E-01 
2.387E+02   8.655E+01  5.351E-01 
2.418E+02   8.706E+01  5.304E-01 
2.449E+02   8.758E+01  5.257E-01 
2.481E+02   8.809E+01  5.210E-01 
2.513E+02   8.860E+01  5.164E-01 
2.546E+02   8.911E+01  5.118E-01 
2.579E+02   8.961E+01  5.072E-01 
2.612E+02   9.012E+01  5.027E-01 
2.646E+02   9.062E+01  4.982E-01 
2.681E+02   9.112E+01  4.938E-01 
2.716E+02   9.161E+01  4.893E-01 
2.751E+02   9.211E+01  4.849E-01 
2.787E+02   9.260E+01  4.806E-01 
2.823E+02   9.308E+01  4.763E-01 
2.859E+02   9.357E+01  4.720E-01 
2.897E+02   9.405E+01  4.677E-01 
2.934E+02   9.453E+01  4.635E-01 
2.972E+02   9.500E+01  4.593E-01 
3.011E+02   9.548E+01  4.551E-01 
3.050E+02   9.594E+01  4.510E-01 
3.090E+02   9.641E+01  4.514E-01 
3.130E+02   9.687E+01  4.473E-01 
3.171E+02   9.732E+01  4.433E-01 
3.212E+02   9.778E+01  4.392E-01 
3.254E+02   9.822E+01  4.352E-01 
3.296E+02   9.867E+01  4.312E-01 
3.339E+02   9.911E+01  4.273E-01 
3.382E+02   9.954E+01  4.234E-01 
3.426E+02   9.997E+01  4.195E-01 
3.471E+02   1.004E+02  4.156E-01 
3.516E+02   1.008E+02  4.118E-01 
3.561E+02   1.012E+02  4.080E-01 
3.608E+02   1.016E+02  4.042E-01 
3.655E+02   1.020E+02  4.005E-01 
3.702E+02   1.024E+02  3.968E-01 
3.750E+02   1.028E+02  3.931E-01 
3.799E+02   1.032E+02  3.895E-01 
3.848E+02   1.036E+02  3.858E-01 
3.898E+02   1.040E+02  3.822E-01 
3.949E+02   1.043E+02  3.787E-01 
4.000E+02   1.047E+02  3.751E-01 
4.052E+02   1.051E+02  3.716E-01 
4.105E+02   1.054E+02  3.682E-01 
4.158E+02   1.058E+02  3.647E-01 
4.212E+02   1.061E+02  3.613E-01 
4.267E+02   1.064E+02  3.579E-01 
4.323E+02   1.067E+02  3.545E-01 
4.379E+02   1.071E+02  3.512E-01 
4.436E+02   1.074E+02  3.479E-01 
4.493E+02   1.077E+02  3.446E-01 
4.552E+02   1.080E+02  3.413E-01 
4.611E+02   1.083E+02  3.381E-01 
4.671E+02   1.085E+02  3.349E-01 
4.731E+02   1.088E+02  3.317E-01 
4.793E+02   1.091E+02  3.286E-01 
4.855E+02   1.093E+02  3.254E-01 
4.918E+02   1.096E+02  3.223E-01 
4.982E+02   1.098E+02  3.193E-01 
5.047E+02   1.101E+02  3.162E-01 
5.113E+02   1.103E+02  3.132E-01 
5.179E+02   1.105E+02  3.102E-01 
5.246E+02   1.107E+02  3.072E-01 
5.315E+02   1.109E+02  3.043E-01 
5.384E+02   1.111E+02  3.014E-01 
5.454E+02   1.113E+02  2.985E-01 
5.524E+02   1.115E+02  2.956E-01 
5.596E+02   1.116E+02  2.927E-01 
5.669E+02   1.118E+02  2.899E-01 
5.743E+02   1.119E+02  2.871E-01 
5.817E+02   1.121E+02  2.843E-01 
5.893E+02   1.122E+02  2.816E-01 
5.969E+02   1.123E+02  2.789E-01 
6.047E+02   1.125E+02  2.762E-01 
6.126E+02   1.126E+02  2.735E-01 
6.205E+02   1.127E+02  2.708E-01 
6.286E+02   1.128E+02  2.682E-01 
6.368E+02   1.128E+02  2.656E-01 
6.450E+02   1.129E+02  2.630E-01 
6.534E+02   1.130E+02  2.604E-01 
6.619E+02   1.130E+02  2.579E-01 
6.705E+02   1.131E+02  2.554E-01 
6.792E+02   1.131E+02  2.529E-01 
6.881E+02   1.132E+02  2.504E-01 
6.970E+02   1.132E+02  2.479E-01 
7.061E+02   1.132E+02  2.455E-01 
7.152E+02   1.132E+02  2.431E-01 
7.245E+02   1.132E+02  2.407E-01 
7.339E+02   1.132E+02  2.384E-01 
7.435E+02   1.131E+02  2.360E-01 
7.531E+02   1.131E+02  2.337E-01 
7.629E+02   1.131E+02  2.314E-01 
7.728E+02   1.130E+02  2.291E-01 
7.829E+02   1.130E+02  2.268E-01 
7.931E+02   1.129E+02  2.246E-01 
8.034E+02   1.128E+02  2.224E-01 
8.138E+02   1.127E+02  2.202E-01 
8.244E+02   1.126E+02  2.180E-01 
8.351E+02   1.125E+02  2.158E-01 
8.460E+02   1.124E+02  2.137E-01 
8.570E+02   1.123E+02  2.115E-01 
8.681E+02   1.122E+02  2.094E-01 
8.794E+02   1.121E+02  2.074E-01 
8.908E+02   1.119E+02  2.053E-01 
9.024E+02   1.118E+02  2.032E-01 
9.141E+02   1.116E+02  2.012E-01 
9.260E+02   1.115E+02  1.992E-01 
9.380E+02   1.113E+02  1.972E-01 
9.502E+02   1.111E+02  1.952E-01 
9.626E+02   1.109E+02  1.933E-01 
9.751E+02   1.107E+02  1.913E-01 
9.877E+02   1.105E+02  1.894E-01 
1.001E+03   1.103E+02  1.875E-01 
1.014E+03   1.101E+02  1.856E-01 
1.027E+03   1.099E+02  1.838E-01 
1.040E+03   1.096E+02  1.819E-01 
1.054E+03   1.094E+02  1.801E-01 
1.067E+03   1.091E+02  1.783E-01 
1.081E+03   1.089E+02  1.765E-01 
1.095E+03   1.086E+02  1.747E-01 
1.109E+03   1.084E+02  1.729E-01 
1.124E+03   1.081E+02  1.712E-01 
1.138E+03   1.078E+02  1.695E-01 
1.153E+03   1.075E+02  1.677E-01 
1.168E+03   1.072E+02  1.660E-01 
1.183E+03   1.069E+02  1.644E-01 
1.199E+03   1.066E+02  1.627E-01 
1.214E+03   1.063E+02  1.610E-01 
1.230E+03   1.060E+02  1.594E-01 
1.246E+03   1.057E+02  1.578E-01 
1.262E+03   1.053E+02  1.562E-01 
1.279E+03   1.050E+02  1.546E-01 
1.295E+03   1.047E+02  1.530E-01 
1.312E+03   1.043E+02  1.515E-01 
1.329E+03   1.040E+02  1.499E-01 
1.347E+03   1.036E+02  1.484E-01 
1.364E+03   1.033E+02  1.469E-01 
1.382E+03   1.029E+02  1.454E-01 
1.400E+03   1.025E+02  1.439E-01 
1.418E+03   1.022E+02  1.424E-01 
1.436E+03   1.018E+02  1.409E-01 
1.455E+03   1.014E+02  1.395E-01 
1.474E+03   1.010E+02  1.381E-01 
1.493E+03   1.006E+02  1.366E-01 
1.513E+03   1.002E+02  1.352E-01 
1.532E+03   9.981E+01  1.339E-01 
1.552E+03   9.941E+01  1.325E-01 
1.572E+03   9.900E+01  1.311E-01 
1.593E+03   9.859E+01  1.298E-01 
1.613E+03   9.818E+01  1.284E-01 
1.634E+03   9.776E+01  1.271E-01 
1.656E+03   9.734E+01  1.258E-01 
1.677E+03   9.691E+01  1.245E-01 
1.699E+03   9.648E+01  1.232E-01 
1.721E+03   9.605E+01  1.219E-01 
1.743E+03   9.562E+01  1.207E-01 
1.766E+03   9.518E+01  1.194E-01 
1.789E+03   9.474E+01  1.182E-01 
1.812E+03   9.430E+01  1.170E-01 
1.836E+03   9.386E+01  1.158E-01 
1.860E+03   9.341E+01  1.146E-01 
