Ion = Helium      . Mass = 4.0026
Tgt = Mg (Solid). Density = 1.7366 g/cm3
Stopping Units =  eV/(1E15 atoms/cm2)
Energy(keV)  S(Elec)    S(Nuc)
1.000E+00   4.166E+00  3.765E+00 
1.013E+00   4.193E+00  3.764E+00 
1.026E+00   4.220E+00  3.763E+00 
1.039E+00   4.248E+00  3.762E+00 
1.053E+00   4.275E+00  3.761E+00 
1.067E+00   4.303E+00  3.759E+00 
1.081E+00   4.331E+00  3.757E+00 
1.095E+00   4.359E+00  3.756E+00 
1.109E+00   4.387E+00  3.754E+00 
1.123E+00   4.415E+00  3.752E+00 
1.138E+00   4.444E+00  3.750E+00 
1.153E+00   4.473E+00  3.747E+00 
1.168E+00   4.502E+00  3.745E+00 
1.183E+00   4.531E+00  3.742E+00 
1.198E+00   4.560E+00  3.740E+00 
1.214E+00   4.590E+00  3.737E+00 
1.229E+00   4.620E+00  3.734E+00 
1.245E+00   4.649E+00  3.731E+00 
1.262E+00   4.680E+00  3.728E+00 
1.278E+00   4.710E+00  3.725E+00 
1.295E+00   4.740E+00  3.721E+00 
1.311E+00   4.771E+00  3.718E+00 
1.329E+00   4.802E+00  3.714E+00 
1.346E+00   4.833E+00  3.710E+00 
1.363E+00   4.864E+00  3.706E+00 
1.381E+00   4.896E+00  3.702E+00 
1.399E+00   4.928E+00  3.698E+00 
1.417E+00   4.960E+00  3.694E+00 
1.436E+00   4.992E+00  3.689E+00 
1.454E+00   5.024E+00  3.685E+00 
1.473E+00   5.057E+00  3.680E+00 
1.492E+00   5.089E+00  3.675E+00 
1.512E+00   5.122E+00  3.670E+00 
1.531E+00   5.155E+00  3.665E+00 
1.551E+00   5.189E+00  3.660E+00 
1.571E+00   5.222E+00  3.655E+00 
1.592E+00   5.256E+00  3.649E+00 
1.612E+00   5.290E+00  3.644E+00 
1.633E+00   5.325E+00  3.638E+00 
1.655E+00   5.359E+00  3.632E+00 
1.676E+00   5.394E+00  3.626E+00 
1.698E+00   5.429E+00  3.620E+00 
1.720E+00   5.464E+00  3.614E+00 
1.742E+00   5.499E+00  3.608E+00 
1.765E+00   5.535E+00  3.601E+00 
1.788E+00   5.571E+00  3.595E+00 
1.811E+00   5.607E+00  3.588E+00 
1.835E+00   5.643E+00  3.581E+00 
1.859E+00   5.680E+00  3.575E+00 
1.883E+00   5.716E+00  3.568E+00 
1.907E+00   5.754E+00  3.560E+00 
1.932E+00   5.791E+00  3.553E+00 
1.957E+00   5.828E+00  3.546E+00 
1.983E+00   5.866E+00  3.538E+00 
2.008E+00   5.904E+00  3.531E+00 
2.034E+00   5.942E+00  3.523E+00 
2.061E+00   5.981E+00  3.515E+00 
2.088E+00   6.020E+00  3.508E+00 
2.115E+00   6.058E+00  3.499E+00 
2.142E+00   6.098E+00  3.491E+00 
2.170E+00   6.137E+00  3.483E+00 
2.198E+00   6.177E+00  3.475E+00 
2.227E+00   6.217E+00  3.466E+00 
2.256E+00   6.257E+00  3.458E+00 
2.285E+00   6.298E+00  3.449E+00 
2.315E+00   6.339E+00  3.440E+00 
2.345E+00   6.380E+00  3.432E+00 
2.375E+00   6.421E+00  3.423E+00 
2.406E+00   6.463E+00  3.413E+00 
2.438E+00   6.504E+00  3.404E+00 
2.469E+00   6.547E+00  3.395E+00 
2.501E+00   6.589E+00  3.386E+00 
2.534E+00   6.632E+00  3.376E+00 
2.567E+00   6.675E+00  3.367E+00 
2.600E+00   6.718E+00  3.357E+00 
2.634E+00   6.761E+00  3.347E+00 
2.668E+00   6.805E+00  3.337E+00 
2.703E+00   6.849E+00  3.328E+00 
2.738E+00   6.894E+00  3.318E+00 
2.773E+00   6.938E+00  3.307E+00 
2.810E+00   6.983E+00  3.297E+00 
2.846E+00   7.028E+00  3.287E+00 
2.883E+00   7.074E+00  3.277E+00 
2.921E+00   7.120E+00  3.266E+00 
2.958E+00   7.166E+00  3.256E+00 
2.997E+00   7.212E+00  3.245E+00 
3.036E+00   7.259E+00  3.234E+00 
3.075E+00   7.306E+00  3.223E+00 
3.115E+00   7.353E+00  3.213E+00 
3.156E+00   7.401E+00  3.202E+00 
3.197E+00   7.449E+00  3.191E+00 
3.238E+00   7.497E+00  3.179E+00 
3.280E+00   7.546E+00  3.168E+00 
3.323E+00   7.595E+00  3.157E+00 
3.366E+00   7.644E+00  3.146E+00 
3.410E+00   7.693E+00  3.134E+00 
3.454E+00   7.743E+00  3.123E+00 
3.499E+00   7.793E+00  3.111E+00 
3.545E+00   7.844E+00  3.100E+00 
3.591E+00   7.895E+00  3.088E+00 
3.637E+00   7.946E+00  3.076E+00 
3.685E+00   7.997E+00  3.065E+00 
3.733E+00   8.049E+00  3.053E+00 
3.781E+00   8.101E+00  3.041E+00 
3.830E+00   8.154E+00  3.029E+00 
3.880E+00   8.206E+00  3.017E+00 
3.930E+00   8.260E+00  3.005E+00 
3.982E+00   8.313E+00  2.993E+00 
4.033E+00   8.367E+00  2.981E+00 
4.086E+00   8.421E+00  2.968E+00 
4.139E+00   8.476E+00  2.956E+00 
4.193E+00   8.531E+00  2.944E+00 
4.247E+00   8.586E+00  2.931E+00 
4.302E+00   8.641E+00  2.919E+00 
4.358E+00   8.697E+00  2.906E+00 
4.415E+00   8.754E+00  2.894E+00 
4.472E+00   8.810E+00  2.881E+00 
4.530E+00   8.867E+00  2.869E+00 
4.589E+00   8.925E+00  2.856E+00 
4.649E+00   8.983E+00  2.843E+00 
4.709E+00   9.041E+00  2.830E+00 
4.770E+00   9.099E+00  2.818E+00 
4.832E+00   9.158E+00  2.805E+00 
4.895E+00   9.218E+00  2.792E+00 
4.959E+00   9.277E+00  2.779E+00 
5.023E+00   9.338E+00  2.766E+00 
5.089E+00   9.398E+00  2.753E+00 
5.155E+00   9.459E+00  2.740E+00 
5.222E+00   9.520E+00  2.727E+00 
5.290E+00   9.582E+00  2.714E+00 
5.358E+00   9.644E+00  2.701E+00 
5.428E+00   9.706E+00  2.688E+00 
5.499E+00   9.769E+00  2.675E+00 
5.570E+00   9.832E+00  2.662E+00 
5.642E+00   9.896E+00  2.649E+00 
5.716E+00   9.960E+00  2.636E+00 
5.790E+00   1.002E+01  2.622E+00 
5.865E+00   1.009E+01  2.609E+00 
5.942E+00   1.016E+01  2.596E+00 
6.019E+00   1.022E+01  2.583E+00 
6.097E+00   1.029E+01  2.570E+00 
6.176E+00   1.035E+01  2.556E+00 
6.256E+00   1.042E+01  2.543E+00 
6.338E+00   1.049E+01  2.530E+00 
6.420E+00   1.056E+01  2.516E+00 
6.504E+00   1.062E+01  2.503E+00 
6.588E+00   1.069E+01  2.490E+00 
6.674E+00   1.076E+01  2.476E+00 
6.760E+00   1.083E+01  2.463E+00 
6.848E+00   1.090E+01  2.450E+00 
6.937E+00   1.097E+01  2.436E+00 
7.027E+00   1.104E+01  2.423E+00 
7.119E+00   1.112E+01  2.410E+00 
7.211E+00   1.119E+01  2.397E+00 
7.305E+00   1.126E+01  2.383E+00 
7.400E+00   1.133E+01  2.370E+00 
7.496E+00   1.141E+01  2.357E+00 
7.594E+00   1.148E+01  2.343E+00 
7.692E+00   1.155E+01  2.330E+00 
7.792E+00   1.163E+01  2.317E+00 
7.894E+00   1.170E+01  2.303E+00 
7.996E+00   1.178E+01  2.290E+00 
8.100E+00   1.185E+01  2.277E+00 
8.205E+00   1.192E+01  2.264E+00 
8.312E+00   1.200E+01  2.250E+00 
8.420E+00   1.207E+01  2.237E+00 
8.529E+00   1.214E+01  2.224E+00 
8.640E+00   1.221E+01  2.211E+00 
8.753E+00   1.229E+01  2.197E+00 
8.866E+00   1.236E+01  2.184E+00 
8.982E+00   1.243E+01  2.171E+00 
9.098E+00   1.251E+01  2.158E+00 
9.217E+00   1.258E+01  2.145E+00 
9.336E+00   1.266E+01  2.132E+00 
9.458E+00   1.274E+01  2.119E+00 
9.581E+00   1.281E+01  2.106E+00 
9.705E+00   1.289E+01  2.093E+00 
9.831E+00   1.297E+01  2.080E+00 
9.959E+00   1.305E+01  2.067E+00 
1.009E+01   1.312E+01  2.054E+00 
1.022E+01   1.320E+01  2.041E+00 
1.035E+01   1.328E+01  2.028E+00 
1.049E+01   1.336E+01  2.015E+00 
1.062E+01   1.344E+01  2.002E+00 
1.076E+01   1.352E+01  1.989E+00 
1.090E+01   1.360E+01  1.976E+00 
1.104E+01   1.369E+01  1.964E+00 
1.119E+01   1.377E+01  1.951E+00 
1.133E+01   1.385E+01  1.938E+00 
1.148E+01   1.393E+01  1.925E+00 
1.163E+01   1.402E+01  1.913E+00 
1.178E+01   1.410E+01  1.900E+00 
1.193E+01   1.419E+01  1.888E+00 
1.209E+01   1.427E+01  1.875E+00 
1.224E+01   1.436E+01  1.863E+00 
1.240E+01   1.444E+01  1.850E+00 
1.256E+01   1.453E+01  1.838E+00 
1.273E+01   1.462E+01  1.825E+00 
1.289E+01   1.470E+01  1.813E+00 
1.306E+01   1.479E+01  1.801E+00 
1.323E+01   1.488E+01  1.788E+00 
1.340E+01   1.497E+01  1.776E+00 
1.358E+01   1.506E+01  1.764E+00 
1.375E+01   1.515E+01  1.752E+00 
1.393E+01   1.524E+01  1.740E+00 
1.411E+01   1.533E+01  1.728E+00 
1.430E+01   1.542E+01  1.716E+00 
1.448E+01   1.552E+01  1.704E+00 
1.467E+01   1.561E+01  1.692E+00 
1.486E+01   1.570E+01  1.680E+00 
1.505E+01   1.580E+01  1.668E+00 
1.525E+01   1.589E+01  1.656E+00 
1.545E+01   1.598E+01  1.644E+00 
1.565E+01   1.608E+01  1.633E+00 
1.585E+01   1.618E+01  1.621E+00 
1.606E+01   1.627E+01  1.609E+00 
1.627E+01   1.637E+01  1.598E+00 
1.648E+01   1.647E+01  1.586E+00 
1.669E+01   1.657E+01  1.575E+00 
1.691E+01   1.666E+01  1.563E+00 
1.713E+01   1.676E+01  1.552E+00 
1.735E+01   1.686E+01  1.541E+00 
1.758E+01   1.697E+01  1.529E+00 
1.781E+01   1.707E+01  1.518E+00 
1.804E+01   1.717E+01  1.507E+00 
1.827E+01   1.727E+01  1.496E+00 
1.851E+01   1.737E+01  1.485E+00 
1.875E+01   1.748E+01  1.474E+00 
1.899E+01   1.758E+01  1.463E+00 
1.924E+01   1.769E+01  1.452E+00 
1.949E+01   1.779E+01  1.441E+00 
1.974E+01   1.790E+01  1.430E+00 
2.000E+01   1.800E+01  1.419E+00 
2.026E+01   1.811E+01  1.409E+00 
2.052E+01   1.822E+01  1.398E+00 
2.079E+01   1.833E+01  1.387E+00 
2.106E+01   1.843E+01  1.377E+00 
2.133E+01   1.854E+01  1.366E+00 
2.161E+01   1.865E+01  1.356E+00 
2.189E+01   1.876E+01  1.345E+00 
2.218E+01   1.888E+01  1.335E+00 
2.247E+01   1.899E+01  1.325E+00 
2.276E+01   1.910E+01  1.314E+00 
2.305E+01   1.921E+01  1.304E+00 
2.335E+01   1.933E+01  1.294E+00 
2.366E+01   1.944E+01  1.284E+00 
2.396E+01   1.956E+01  1.274E+00 
2.428E+01   1.967E+01  1.264E+00 
2.459E+01   1.979E+01  1.254E+00 
2.491E+01   1.991E+01  1.244E+00 
2.523E+01   2.002E+01  1.234E+00 
2.556E+01   2.014E+01  1.224E+00 
2.589E+01   2.026E+01  1.215E+00 
2.623E+01   2.038E+01  1.205E+00 
2.657E+01   2.050E+01  1.195E+00 
2.692E+01   2.062E+01  1.186E+00 
2.727E+01   2.074E+01  1.176E+00 
2.762E+01   2.087E+01  1.167E+00 
2.798E+01   2.099E+01  1.158E+00 
2.834E+01   2.111E+01  1.148E+00 
2.871E+01   2.124E+01  1.139E+00 
2.909E+01   2.136E+01  1.130E+00 
2.946E+01   2.149E+01  1.121E+00 
2.985E+01   2.161E+01  1.111E+00 
3.023E+01   2.174E+01  1.102E+00 
3.063E+01   2.187E+01  1.093E+00 
3.103E+01   2.199E+01  1.084E+00 
3.143E+01   2.212E+01  1.075E+00 
3.184E+01   2.225E+01  1.067E+00 
3.225E+01   2.238E+01  1.058E+00 
3.267E+01   2.251E+01  1.049E+00 
3.309E+01   2.265E+01  1.040E+00 
3.352E+01   2.278E+01  1.032E+00 
3.396E+01   2.291E+01  1.023E+00 
3.440E+01   2.304E+01  1.015E+00 
3.485E+01   2.318E+01  1.006E+00 
3.530E+01   2.331E+01  9.978E-01 
3.576E+01   2.345E+01  9.894E-01 
3.623E+01   2.359E+01  9.811E-01 
3.670E+01   2.372E+01  9.729E-01 
3.717E+01   2.386E+01  9.647E-01 
3.766E+01   2.400E+01  9.565E-01 
3.815E+01   2.414E+01  9.484E-01 
3.864E+01   2.428E+01  9.404E-01 
3.914E+01   2.442E+01  9.324E-01 
3.965E+01   2.456E+01  9.245E-01 
4.017E+01   2.470E+01  9.166E-01 
4.069E+01   2.485E+01  9.088E-01 
4.122E+01   2.499E+01  9.010E-01 
4.175E+01   2.513E+01  8.933E-01 
4.230E+01   2.528E+01  8.856E-01 
4.285E+01   2.542E+01  8.780E-01 
4.340E+01   2.557E+01  8.704E-01 
4.397E+01   2.572E+01  8.629E-01 
4.454E+01   2.587E+01  8.554E-01 
4.512E+01   2.601E+01  8.480E-01 
4.570E+01   2.616E+01  8.407E-01 
4.630E+01   2.631E+01  8.334E-01 
4.690E+01   2.646E+01  8.261E-01 
4.751E+01   2.661E+01  8.189E-01 
4.813E+01   2.677E+01  8.117E-01 
4.875E+01   2.692E+01  8.046E-01 
4.939E+01   2.707E+01  7.976E-01 
5.003E+01   2.723E+01  7.906E-01 
5.068E+01   2.738E+01  7.836E-01 
5.134E+01   2.754E+01  7.767E-01 
5.200E+01   2.769E+01  7.699E-01 
5.268E+01   2.785E+01  7.631E-01 
5.336E+01   2.801E+01  7.563E-01 
5.406E+01   2.817E+01  7.496E-01 
5.476E+01   2.833E+01  7.430E-01 
5.547E+01   2.849E+01  7.364E-01 
5.619E+01   2.865E+01  7.298E-01 
5.692E+01   2.881E+01  7.233E-01 
5.766E+01   2.897E+01  7.168E-01 
5.841E+01   2.913E+01  7.104E-01 
5.917E+01   2.929E+01  7.040E-01 
5.994E+01   2.946E+01  6.977E-01 
6.072E+01   2.962E+01  6.915E-01 
6.151E+01   2.979E+01  6.852E-01 
6.231E+01   2.995E+01  6.790E-01 
6.312E+01   3.012E+01  6.729E-01 
6.394E+01   3.029E+01  6.668E-01 
6.477E+01   3.046E+01  6.608E-01 
6.561E+01   3.063E+01  6.548E-01 
6.646E+01   3.080E+01  6.489E-01 
6.733E+01   3.097E+01  6.430E-01 
6.820E+01   3.114E+01  6.371E-01 
6.909E+01   3.131E+01  6.313E-01 
6.999E+01   3.148E+01  6.255E-01 
7.090E+01   3.165E+01  6.198E-01 
7.182E+01   3.183E+01  6.141E-01 
7.275E+01   3.200E+01  6.085E-01 
7.370E+01   3.217E+01  6.029E-01 
7.465E+01   3.235E+01  5.974E-01 
7.562E+01   3.253E+01  5.919E-01 
7.661E+01   3.270E+01  5.493E-01 
7.760E+01   3.288E+01  5.443E-01 
7.861E+01   3.306E+01  5.393E-01 
7.963E+01   3.324E+01  5.344E-01 
8.067E+01   3.342E+01  5.295E-01 
8.172E+01   3.359E+01  5.247E-01 
8.278E+01   3.378E+01  5.199E-01 
8.385E+01   3.396E+01  5.151E-01 
8.494E+01   3.414E+01  5.104E-01 
8.605E+01   3.432E+01  5.057E-01 
8.717E+01   3.450E+01  5.010E-01 
8.830E+01   3.469E+01  4.964E-01 
8.945E+01   3.487E+01  4.918E-01 
9.061E+01   3.505E+01  4.873E-01 
9.179E+01   3.524E+01  4.827E-01 
9.298E+01   3.542E+01  4.783E-01 
9.419E+01   3.561E+01  4.738E-01 
9.541E+01   3.580E+01  4.694E-01 
9.665E+01   3.598E+01  4.650E-01 
9.791E+01   3.617E+01  4.607E-01 
9.918E+01   3.636E+01  4.564E-01 
1.005E+02   3.655E+01  4.521E-01 
1.018E+02   3.673E+01  4.479E-01 
1.031E+02   3.692E+01  4.437E-01 
1.044E+02   3.711E+01  4.395E-01 
1.058E+02   3.730E+01  4.354E-01 
1.072E+02   3.749E+01  4.313E-01 
1.086E+02   3.768E+01  4.272E-01 
1.100E+02   3.788E+01  4.232E-01 
1.114E+02   3.807E+01  4.192E-01 
1.129E+02   3.826E+01  4.152E-01 
1.143E+02   3.845E+01  4.113E-01 
1.158E+02   3.865E+01  4.074E-01 
1.173E+02   3.884E+01  4.035E-01 
1.188E+02   3.903E+01  3.997E-01 
1.204E+02   3.923E+01  3.959E-01 
1.219E+02   3.942E+01  3.921E-01 
1.235E+02   3.961E+01  3.884E-01 
1.251E+02   3.981E+01  3.847E-01 
1.268E+02   4.000E+01  3.810E-01 
1.284E+02   4.020E+01  3.773E-01 
1.301E+02   4.039E+01  3.737E-01 
1.318E+02   4.059E+01  3.701E-01 
1.335E+02   4.078E+01  3.666E-01 
1.352E+02   4.098E+01  3.630E-01 
1.370E+02   4.118E+01  3.596E-01 
1.388E+02   4.137E+01  3.561E-01 
1.406E+02   4.157E+01  3.527E-01 
1.424E+02   4.176E+01  3.492E-01 
1.442E+02   4.196E+01  3.459E-01 
1.461E+02   4.216E+01  3.425E-01 
1.480E+02   4.235E+01  3.392E-01 
1.499E+02   4.255E+01  3.359E-01 
1.519E+02   4.275E+01  3.327E-01 
1.539E+02   4.294E+01  3.294E-01 
1.559E+02   4.314E+01  3.262E-01 
1.579E+02   4.333E+01  3.230E-01 
1.599E+02   4.353E+01  3.199E-01 
1.620E+02   4.373E+01  3.168E-01 
1.641E+02   4.392E+01  3.137E-01 
1.662E+02   4.412E+01  3.106E-01 
1.684E+02   4.431E+01  3.076E-01 
1.706E+02   4.451E+01  3.046E-01 
1.728E+02   4.470E+01  3.016E-01 
1.751E+02   4.490E+01  2.986E-01 
1.773E+02   4.509E+01  2.957E-01 
1.796E+02   4.529E+01  2.928E-01 
1.820E+02   4.548E+01  2.899E-01 
1.843E+02   4.568E+01  2.870E-01 
1.867E+02   4.587E+01  2.842E-01 
1.892E+02   4.606E+01  2.814E-01 
1.916E+02   4.625E+01  2.786E-01 
1.941E+02   4.644E+01  2.759E-01 
1.966E+02   4.664E+01  2.731E-01 
1.992E+02   4.683E+01  2.704E-01 
2.018E+02   4.702E+01  2.678E-01 
2.044E+02   4.721E+01  2.651E-01 
2.071E+02   4.740E+01  2.625E-01 
2.097E+02   4.758E+01  2.599E-01 
2.125E+02   4.777E+01  2.573E-01 
2.152E+02   4.796E+01  2.547E-01 
2.180E+02   4.814E+01  2.522E-01 
2.209E+02   4.833E+01  2.497E-01 
2.237E+02   4.851E+01  2.472E-01 
2.266E+02   4.870E+01  2.447E-01 
2.296E+02   4.888E+01  2.423E-01 
2.326E+02   4.906E+01  2.398E-01 
2.356E+02   4.924E+01  2.374E-01 
2.387E+02   4.942E+01  2.351E-01 
2.418E+02   4.960E+01  2.327E-01 
2.449E+02   4.978E+01  2.304E-01 
2.481E+02   4.996E+01  2.281E-01 
2.513E+02   5.013E+01  2.258E-01 
2.546E+02   5.031E+01  2.235E-01 
2.579E+02   5.048E+01  2.212E-01 
2.612E+02   5.065E+01  2.190E-01 
2.646E+02   5.082E+01  2.168E-01 
2.681E+02   5.099E+01  2.146E-01 
2.716E+02   5.116E+01  2.125E-01 
2.751E+02   5.133E+01  2.103E-01 
2.787E+02   5.149E+01  2.082E-01 
2.823E+02   5.166E+01  2.061E-01 
2.859E+02   5.182E+01  2.040E-01 
2.897E+02   5.198E+01  2.019E-01 
2.934E+02   5.214E+01  1.999E-01 
2.972E+02   5.230E+01  1.978E-01 
3.011E+02   5.245E+01  1.958E-01 
3.050E+02   5.261E+01  1.938E-01 
3.090E+02   5.276E+01  1.919E-01 
3.130E+02   5.291E+01  1.899E-01 
3.171E+02   5.306E+01  1.880E-01 
3.212E+02   5.320E+01  1.861E-01 
3.254E+02   5.335E+01  1.842E-01 
3.296E+02   5.349E+01  1.823E-01 
3.339E+02   5.363E+01  1.804E-01 
3.382E+02   5.377E+01  1.786E-01 
3.426E+02   5.391E+01  1.768E-01 
3.471E+02   5.404E+01  1.750E-01 
3.516E+02   5.418E+01  1.732E-01 
3.561E+02   5.431E+01  1.714E-01 
3.608E+02   5.444E+01  1.696E-01 
3.655E+02   5.456E+01  1.679E-01 
3.702E+02   5.469E+01  1.662E-01 
3.750E+02   5.481E+01  1.645E-01 
3.799E+02   5.493E+01  1.628E-01 
3.848E+02   5.504E+01  1.611E-01 
3.898E+02   5.516E+01  1.594E-01 
3.949E+02   5.527E+01  1.578E-01 
4.000E+02   5.538E+01  1.562E-01 
4.052E+02   5.549E+01  1.546E-01 
4.105E+02   5.559E+01  1.530E-01 
4.158E+02   5.569E+01  1.514E-01 
4.212E+02   5.579E+01  1.498E-01 
4.267E+02   5.589E+01  1.483E-01 
4.323E+02   5.598E+01  1.467E-01 
4.379E+02   5.607E+01  1.452E-01 
4.436E+02   5.616E+01  1.437E-01 
4.493E+02   5.624E+01  1.422E-01 
4.552E+02   5.632E+01  1.407E-01 
4.611E+02   5.640E+01  1.393E-01 
4.671E+02   5.648E+01  1.378E-01 
4.731E+02   5.655E+01  1.364E-01 
4.793E+02   5.662E+01  1.350E-01 
4.855E+02   5.669E+01  1.336E-01 
4.918E+02   5.675E+01  1.322E-01 
4.982E+02   5.681E+01  1.308E-01 
5.047E+02   5.687E+01  1.295E-01 
5.113E+02   5.692E+01  1.281E-01 
5.179E+02   5.698E+01  1.268E-01 
5.246E+02   5.702E+01  1.255E-01 
5.315E+02   5.707E+01  1.241E-01 
5.384E+02   5.711E+01  1.228E-01 
5.454E+02   5.715E+01  1.216E-01 
5.524E+02   5.718E+01  1.203E-01 
5.596E+02   5.721E+01  1.190E-01 
5.669E+02   5.724E+01  1.178E-01 
5.743E+02   5.726E+01  1.166E-01 
5.817E+02   5.728E+01  1.153E-01 
5.893E+02   5.730E+01  1.141E-01 
5.969E+02   5.731E+01  1.129E-01 
6.047E+02   5.732E+01  1.117E-01 
6.126E+02   5.733E+01  1.106E-01 
6.205E+02   5.733E+01  1.094E-01 
6.286E+02   5.733E+01  1.083E-01 
6.368E+02   5.733E+01  1.071E-01 
6.450E+02   5.732E+01  1.060E-01 
6.534E+02   5.731E+01  1.049E-01 
6.619E+02   5.729E+01  1.038E-01 
6.705E+02   5.728E+01  1.027E-01 
6.792E+02   5.725E+01  1.016E-01 
6.881E+02   5.723E+01  1.005E-01 
6.970E+02   5.720E+01  9.946E-02 
7.061E+02   5.716E+01  9.841E-02 
7.152E+02   5.713E+01  9.737E-02 
7.245E+02   5.709E+01  9.634E-02 
7.339E+02   5.704E+01  9.532E-02 
7.435E+02   5.699E+01  9.431E-02 
7.531E+02   5.694E+01  9.331E-02 
7.629E+02   5.689E+01  9.232E-02 
7.728E+02   5.683E+01  9.134E-02 
7.829E+02   5.676E+01  9.038E-02 
7.931E+02   5.670E+01  8.942E-02 
8.034E+02   5.663E+01  8.847E-02 
8.138E+02   5.655E+01  8.753E-02 
8.244E+02   5.648E+01  8.660E-02 
8.351E+02   5.639E+01  8.568E-02 
8.460E+02   5.631E+01  8.477E-02 
8.570E+02   5.622E+01  8.387E-02 
8.681E+02   5.613E+01  8.297E-02 
8.794E+02   5.603E+01  8.209E-02 
8.908E+02   5.593E+01  8.122E-02 
9.024E+02   5.583E+01  8.035E-02 
9.141E+02   5.572E+01  7.949E-02 
9.260E+02   5.561E+01  7.865E-02 
9.380E+02   5.550E+01  7.781E-02 
9.502E+02   5.538E+01  7.698E-02 
9.626E+02   5.526E+01  7.616E-02 
9.751E+02   5.514E+01  7.534E-02 
9.877E+02   5.501E+01  7.454E-02 
1.001E+03   5.488E+01  7.374E-02 
1.014E+03   5.475E+01  7.295E-02 
1.027E+03   5.461E+01  7.217E-02 
1.040E+03   5.447E+01  7.140E-02 
1.054E+03   5.432E+01  7.063E-02 
1.067E+03   5.418E+01  6.987E-02 
1.081E+03   5.403E+01  6.913E-02 
1.095E+03   5.387E+01  6.838E-02 
1.109E+03   5.372E+01  6.765E-02 
1.124E+03   5.355E+01  6.692E-02 
1.138E+03   5.339E+01  6.621E-02 
1.153E+03   5.323E+01  6.549E-02 
1.168E+03   5.306E+01  6.479E-02 
1.183E+03   5.288E+01  6.409E-02 
1.199E+03   5.271E+01  6.340E-02 
1.214E+03   5.253E+01  6.272E-02 
1.230E+03   5.235E+01  6.205E-02 
1.246E+03   5.217E+01  6.138E-02 
1.262E+03   5.198E+01  6.072E-02 
1.279E+03   5.179E+01  6.006E-02 
1.295E+03   5.160E+01  5.942E-02 
1.312E+03   5.140E+01  5.877E-02 
1.329E+03   5.121E+01  5.814E-02 
1.347E+03   5.101E+01  5.751E-02 
1.364E+03   5.081E+01  5.689E-02 
1.382E+03   5.060E+01  5.628E-02 
1.400E+03   5.039E+01  5.567E-02 
1.418E+03   5.019E+01  5.507E-02 
1.436E+03   4.997E+01  5.447E-02 
1.455E+03   4.976E+01  5.388E-02 
1.474E+03   4.954E+01  5.330E-02 
1.493E+03   4.933E+01  5.272E-02 
1.513E+03   4.911E+01  5.215E-02 
1.532E+03   4.888E+01  5.159E-02 
1.552E+03   4.866E+01  5.103E-02 
1.572E+03   4.843E+01  5.047E-02 
1.593E+03   4.820E+01  4.993E-02 
1.613E+03   4.797E+01  4.938E-02 
1.634E+03   4.774E+01  4.885E-02 
1.656E+03   4.751E+01  4.832E-02 
1.677E+03   4.727E+01  4.779E-02 
1.699E+03   4.704E+01  4.727E-02 
1.721E+03   4.680E+01  4.676E-02 
1.743E+03   4.656E+01  4.625E-02 
1.766E+03   4.632E+01  4.575E-02 
1.789E+03   4.607E+01  4.525E-02 
1.812E+03   4.583E+01  4.476E-02 
1.836E+03   4.558E+01  4.427E-02 
1.860E+03   4.534E+01  4.379E-02 
