Ion = Helium      . Mass = 4.0026
Tgt =  V (Solid). Density = 5.96 g/cm3
Stopping Units =  eV/(1E15 atoms/cm2)
Energy(keV)  S(Elec)    S(Nuc)
1.000E+00   4.358E+00  3.294E+00 
1.013E+00   4.387E+00  3.297E+00 
1.026E+00   4.415E+00  3.299E+00 
1.039E+00   4.444E+00  3.302E+00 
1.053E+00   4.472E+00  3.304E+00 
1.067E+00   4.501E+00  3.306E+00 
1.081E+00   4.531E+00  3.308E+00 
1.095E+00   4.560E+00  3.310E+00 
1.109E+00   4.589E+00  3.312E+00 
1.123E+00   4.619E+00  3.314E+00 
1.138E+00   4.649E+00  3.316E+00 
1.153E+00   4.679E+00  3.318E+00 
1.168E+00   4.709E+00  3.319E+00 
1.183E+00   4.740E+00  3.321E+00 
1.198E+00   4.771E+00  3.322E+00 
1.214E+00   4.802E+00  3.323E+00 
1.229E+00   4.833E+00  3.325E+00 
1.245E+00   4.864E+00  3.326E+00 
1.262E+00   4.895E+00  3.327E+00 
1.278E+00   4.927E+00  3.328E+00 
1.295E+00   4.959E+00  3.329E+00 
1.311E+00   4.991E+00  3.330E+00 
1.329E+00   5.024E+00  3.330E+00 
1.346E+00   5.056E+00  3.331E+00 
1.363E+00   5.089E+00  3.332E+00 
1.381E+00   5.122E+00  3.332E+00 
1.399E+00   5.155E+00  3.333E+00 
1.417E+00   5.188E+00  3.333E+00 
1.436E+00   5.222E+00  3.333E+00 
1.454E+00   5.256E+00  3.333E+00 
1.473E+00   5.290E+00  3.333E+00 
1.492E+00   5.324E+00  3.333E+00 
1.512E+00   5.359E+00  3.333E+00 
1.531E+00   5.393E+00  3.333E+00 
1.551E+00   5.428E+00  3.332E+00 
1.571E+00   5.463E+00  3.332E+00 
1.592E+00   5.499E+00  3.331E+00 
1.612E+00   5.534E+00  3.331E+00 
1.633E+00   5.570E+00  3.330E+00 
1.655E+00   5.606E+00  3.329E+00 
1.676E+00   5.643E+00  3.328E+00 
1.698E+00   5.679E+00  3.327E+00 
1.720E+00   5.716E+00  3.326E+00 
1.742E+00   5.753E+00  3.325E+00 
1.765E+00   5.790E+00  3.323E+00 
1.788E+00   5.828E+00  3.322E+00 
1.811E+00   5.866E+00  3.321E+00 
1.835E+00   5.904E+00  3.319E+00 
1.859E+00   5.942E+00  3.317E+00 
1.883E+00   5.980E+00  3.315E+00 
1.907E+00   6.019E+00  3.314E+00 
1.932E+00   6.058E+00  3.312E+00 
1.957E+00   6.097E+00  3.309E+00 
1.983E+00   6.137E+00  3.307E+00 
2.008E+00   6.176E+00  3.305E+00 
2.034E+00   6.216E+00  3.303E+00 
2.061E+00   6.257E+00  3.300E+00 
2.088E+00   6.297E+00  3.298E+00 
2.115E+00   6.338E+00  3.295E+00 
2.142E+00   6.379E+00  3.292E+00 
2.170E+00   6.420E+00  3.289E+00 
2.198E+00   6.462E+00  3.286E+00 
2.227E+00   6.504E+00  3.283E+00 
2.256E+00   6.546E+00  3.280E+00 
2.285E+00   6.588E+00  3.277E+00 
2.315E+00   6.631E+00  3.274E+00 
2.345E+00   6.674E+00  3.270E+00 
2.375E+00   6.717E+00  3.267E+00 
2.406E+00   6.761E+00  3.263E+00 
2.438E+00   6.805E+00  3.259E+00 
2.469E+00   6.849E+00  3.256E+00 
2.501E+00   6.893E+00  3.252E+00 
2.534E+00   6.938E+00  3.248E+00 
2.567E+00   6.983E+00  3.243E+00 
2.600E+00   7.028E+00  3.239E+00 
2.634E+00   7.073E+00  3.235E+00 
2.668E+00   7.119E+00  3.231E+00 
2.703E+00   7.165E+00  3.226E+00 
2.738E+00   7.212E+00  3.221E+00 
2.773E+00   7.258E+00  3.217E+00 
2.810E+00   7.305E+00  3.212E+00 
2.846E+00   7.353E+00  3.207E+00 
2.883E+00   7.400E+00  3.202E+00 
2.921E+00   7.448E+00  3.197E+00 
2.958E+00   7.497E+00  3.192E+00 
2.997E+00   7.545E+00  3.187E+00 
3.036E+00   7.594E+00  3.181E+00 
3.075E+00   7.643E+00  3.176E+00 
3.115E+00   7.693E+00  3.170E+00 
3.156E+00   7.742E+00  3.165E+00 
3.197E+00   7.793E+00  3.159E+00 
3.238E+00   7.843E+00  3.153E+00 
3.280E+00   7.894E+00  3.147E+00 
3.323E+00   7.945E+00  3.141E+00 
3.366E+00   7.996E+00  3.135E+00 
3.410E+00   8.048E+00  3.129E+00 
3.454E+00   8.100E+00  3.123E+00 
3.499E+00   8.153E+00  3.117E+00 
3.545E+00   8.206E+00  3.110E+00 
3.591E+00   8.259E+00  3.104E+00 
3.637E+00   8.312E+00  3.097E+00 
3.685E+00   8.366E+00  3.090E+00 
3.733E+00   8.420E+00  3.083E+00 
3.781E+00   8.475E+00  3.077E+00 
3.830E+00   8.530E+00  3.070E+00 
3.880E+00   8.585E+00  3.063E+00 
3.930E+00   8.641E+00  3.055E+00 
3.982E+00   8.697E+00  3.048E+00 
4.033E+00   8.753E+00  3.041E+00 
4.086E+00   8.810E+00  3.034E+00 
4.139E+00   8.867E+00  3.026E+00 
4.193E+00   8.924E+00  3.019E+00 
4.247E+00   8.982E+00  3.011E+00 
4.302E+00   9.040E+00  3.003E+00 
4.358E+00   9.099E+00  2.995E+00 
4.415E+00   9.158E+00  2.988E+00 
4.472E+00   9.217E+00  2.980E+00 
4.530E+00   9.277E+00  2.972E+00 
4.589E+00   9.337E+00  2.963E+00 
4.649E+00   9.397E+00  2.955E+00 
4.709E+00   9.458E+00  2.947E+00 
4.770E+00   9.519E+00  2.939E+00 
4.832E+00   9.581E+00  2.930E+00 
4.895E+00   9.643E+00  2.922E+00 
4.959E+00   9.705E+00  2.913E+00 
5.023E+00   9.768E+00  2.905E+00 
5.089E+00   9.832E+00  2.896E+00 
5.155E+00   9.895E+00  2.887E+00 
5.222E+00   9.959E+00  2.878E+00 
5.290E+00   1.002E+01  2.869E+00 
5.358E+00   1.009E+01  2.860E+00 
5.428E+00   1.015E+01  2.851E+00 
5.499E+00   1.022E+01  2.842E+00 
5.570E+00   1.029E+01  2.833E+00 
5.642E+00   1.035E+01  2.824E+00 
5.716E+00   1.042E+01  2.815E+00 
5.790E+00   1.049E+01  2.805E+00 
5.865E+00   1.056E+01  2.796E+00 
5.942E+00   1.062E+01  2.786E+00 
6.019E+00   1.069E+01  2.777E+00 
6.097E+00   1.076E+01  2.767E+00 
6.176E+00   1.083E+01  2.757E+00 
6.256E+00   1.090E+01  2.748E+00 
6.338E+00   1.097E+01  2.738E+00 
6.420E+00   1.104E+01  2.728E+00 
6.504E+00   1.111E+01  2.718E+00 
6.588E+00   1.119E+01  2.708E+00 
6.674E+00   1.126E+01  2.698E+00 
6.760E+00   1.133E+01  2.688E+00 
6.848E+00   1.141E+01  2.678E+00 
6.937E+00   1.148E+01  2.668E+00 
7.027E+00   1.155E+01  2.658E+00 
7.119E+00   1.163E+01  2.647E+00 
7.211E+00   1.170E+01  2.637E+00 
7.305E+00   1.178E+01  2.627E+00 
7.400E+00   1.186E+01  2.616E+00 
7.496E+00   1.193E+01  2.606E+00 
7.594E+00   1.201E+01  2.595E+00 
7.692E+00   1.209E+01  2.585E+00 
7.792E+00   1.217E+01  2.574E+00 
7.894E+00   1.225E+01  2.564E+00 
7.996E+00   1.232E+01  2.553E+00 
8.100E+00   1.241E+01  2.542E+00 
8.205E+00   1.249E+01  2.532E+00 
8.312E+00   1.257E+01  2.521E+00 
8.420E+00   1.265E+01  2.510E+00 
8.529E+00   1.273E+01  2.499E+00 
8.640E+00   1.282E+01  2.488E+00 
8.753E+00   1.290E+01  2.477E+00 
8.866E+00   1.299E+01  2.466E+00 
8.982E+00   1.307E+01  2.456E+00 
9.098E+00   1.316E+01  2.445E+00 
9.217E+00   1.325E+01  2.433E+00 
9.336E+00   1.333E+01  2.422E+00 
9.458E+00   1.342E+01  2.411E+00 
9.581E+00   1.351E+01  2.400E+00 
9.705E+00   1.360E+01  2.389E+00 
9.831E+00   1.369E+01  2.378E+00 
9.959E+00   1.378E+01  2.367E+00 
1.009E+01   1.387E+01  2.356E+00 
1.022E+01   1.396E+01  2.344E+00 
1.035E+01   1.405E+01  2.333E+00 
1.049E+01   1.414E+01  2.322E+00 
1.062E+01   1.424E+01  2.311E+00 
1.076E+01   1.433E+01  2.299E+00 
1.090E+01   1.443E+01  2.288E+00 
1.104E+01   1.452E+01  2.277E+00 
1.119E+01   1.462E+01  2.265E+00 
1.133E+01   1.471E+01  2.254E+00 
1.148E+01   1.481E+01  2.243E+00 
1.163E+01   1.491E+01  2.231E+00 
1.178E+01   1.501E+01  2.220E+00 
1.193E+01   1.511E+01  2.208E+00 
1.209E+01   1.521E+01  2.197E+00 
1.224E+01   1.531E+01  2.185E+00 
1.240E+01   1.541E+01  2.174E+00 
1.256E+01   1.551E+01  2.163E+00 
1.273E+01   1.561E+01  2.151E+00 
1.289E+01   1.571E+01  2.140E+00 
1.306E+01   1.582E+01  2.128E+00 
1.323E+01   1.592E+01  2.117E+00 
1.340E+01   1.603E+01  2.105E+00 
1.358E+01   1.614E+01  2.094E+00 
1.375E+01   1.624E+01  2.083E+00 
1.393E+01   1.635E+01  2.071E+00 
1.411E+01   1.646E+01  2.060E+00 
1.430E+01   1.657E+01  2.048E+00 
1.448E+01   1.668E+01  2.037E+00 
1.467E+01   1.679E+01  2.025E+00 
1.486E+01   1.690E+01  2.014E+00 
1.505E+01   1.701E+01  2.002E+00 
1.525E+01   1.712E+01  1.991E+00 
1.545E+01   1.724E+01  1.980E+00 
1.565E+01   1.735E+01  1.968E+00 
1.585E+01   1.747E+01  1.957E+00 
1.606E+01   1.758E+01  1.945E+00 
1.627E+01   1.770E+01  1.934E+00 
1.648E+01   1.782E+01  1.923E+00 
1.669E+01   1.794E+01  1.911E+00 
1.691E+01   1.806E+01  1.900E+00 
1.713E+01   1.818E+01  1.889E+00 
1.735E+01   1.830E+01  1.877E+00 
1.758E+01   1.842E+01  1.866E+00 
1.781E+01   1.854E+01  1.855E+00 
1.804E+01   1.867E+01  1.844E+00 
1.827E+01   1.879E+01  1.832E+00 
1.851E+01   1.892E+01  1.821E+00 
1.875E+01   1.904E+01  1.810E+00 
1.899E+01   1.917E+01  1.799E+00 
1.924E+01   1.930E+01  1.788E+00 
1.949E+01   1.943E+01  1.776E+00 
1.974E+01   1.956E+01  1.765E+00 
2.000E+01   1.969E+01  1.754E+00 
2.026E+01   1.982E+01  1.743E+00 
2.052E+01   1.995E+01  1.732E+00 
2.079E+01   2.008E+01  1.721E+00 
2.106E+01   2.022E+01  1.710E+00 
2.133E+01   2.035E+01  1.699E+00 
2.161E+01   2.049E+01  1.688E+00 
2.189E+01   2.063E+01  1.677E+00 
2.218E+01   2.077E+01  1.666E+00 
2.247E+01   2.090E+01  1.656E+00 
2.276E+01   2.104E+01  1.645E+00 
2.305E+01   2.119E+01  1.634E+00 
2.335E+01   2.133E+01  1.623E+00 
2.366E+01   2.147E+01  1.612E+00 
2.396E+01   2.162E+01  1.602E+00 
2.428E+01   2.176E+01  1.591E+00 
2.459E+01   2.191E+01  1.580E+00 
2.491E+01   2.205E+01  1.570E+00 
2.523E+01   2.220E+01  1.559E+00 
2.556E+01   2.235E+01  1.549E+00 
2.589E+01   2.250E+01  1.538E+00 
2.623E+01   2.265E+01  1.528E+00 
2.657E+01   2.281E+01  1.517E+00 
2.692E+01   2.296E+01  1.507E+00 
2.727E+01   2.312E+01  1.496E+00 
2.762E+01   2.327E+01  1.486E+00 
2.798E+01   2.343E+01  1.476E+00 
2.834E+01   2.359E+01  1.465E+00 
2.871E+01   2.375E+01  1.455E+00 
2.909E+01   2.391E+01  1.445E+00 
2.946E+01   2.407E+01  1.435E+00 
2.985E+01   2.423E+01  1.425E+00 
3.023E+01   2.440E+01  1.415E+00 
3.063E+01   2.456E+01  1.405E+00 
3.103E+01   2.473E+01  1.395E+00 
3.143E+01   2.490E+01  1.385E+00 
3.184E+01   2.506E+01  1.375E+00 
3.225E+01   2.523E+01  1.365E+00 
3.267E+01   2.541E+01  1.355E+00 
3.309E+01   2.558E+01  1.345E+00 
3.352E+01   2.575E+01  1.335E+00 
3.396E+01   2.593E+01  1.326E+00 
3.440E+01   2.610E+01  1.316E+00 
3.485E+01   2.628E+01  1.306E+00 
3.530E+01   2.646E+01  1.297E+00 
3.576E+01   2.664E+01  1.287E+00 
3.623E+01   2.682E+01  1.278E+00 
3.670E+01   2.700E+01  1.268E+00 
3.717E+01   2.719E+01  1.259E+00 
3.766E+01   2.737E+01  1.249E+00 
3.815E+01   2.756E+01  1.240E+00 
3.864E+01   2.775E+01  1.231E+00 
3.914E+01   2.794E+01  1.221E+00 
3.965E+01   2.813E+01  1.212E+00 
4.017E+01   2.832E+01  1.203E+00 
4.069E+01   2.852E+01  1.194E+00 
4.122E+01   2.871E+01  1.185E+00 
4.175E+01   2.891E+01  1.176E+00 
4.230E+01   2.911E+01  1.167E+00 
4.285E+01   2.931E+01  1.158E+00 
4.340E+01   2.951E+01  1.149E+00 
4.397E+01   2.971E+01  1.140E+00 
4.454E+01   2.991E+01  1.131E+00 
4.512E+01   3.012E+01  1.123E+00 
4.570E+01   3.033E+01  1.114E+00 
4.630E+01   3.053E+01  1.105E+00 
4.690E+01   3.074E+01  1.097E+00 
4.751E+01   3.096E+01  1.088E+00 
4.813E+01   3.117E+01  1.080E+00 
4.875E+01   3.138E+01  1.071E+00 
4.939E+01   3.160E+01  1.063E+00 
5.003E+01   3.182E+01  1.054E+00 
5.068E+01   3.204E+01  1.046E+00 
5.134E+01   3.226E+01  1.038E+00 
5.200E+01   3.248E+01  1.029E+00 
5.268E+01   3.271E+01  1.021E+00 
5.336E+01   3.293E+01  1.013E+00 
5.406E+01   3.316E+01  1.005E+00 
5.476E+01   3.339E+01  9.968E-01 
5.547E+01   3.362E+01  9.887E-01 
5.619E+01   3.385E+01  9.808E-01 
5.692E+01   3.409E+01  9.728E-01 
5.766E+01   3.433E+01  9.650E-01 
5.841E+01   3.456E+01  9.571E-01 
5.917E+01   3.480E+01  9.493E-01 
5.994E+01   3.505E+01  9.416E-01 
6.072E+01   3.529E+01  9.339E-01 
6.151E+01   3.553E+01  9.263E-01 
6.231E+01   3.578E+01  9.186E-01 
6.312E+01   3.603E+01  9.111E-01 
6.394E+01   3.628E+01  9.036E-01 
6.477E+01   3.653E+01  8.961E-01 
6.561E+01   3.679E+01  8.887E-01 
6.646E+01   3.705E+01  8.813E-01 
6.733E+01   3.730E+01  8.740E-01 
6.820E+01   3.756E+01  8.667E-01 
6.909E+01   3.783E+01  8.595E-01 
6.999E+01   3.809E+01  8.523E-01 
7.090E+01   3.836E+01  8.452E-01 
7.182E+01   3.862E+01  8.381E-01 
7.275E+01   3.889E+01  8.311E-01 
7.370E+01   3.917E+01  8.240E-01 
7.465E+01   3.944E+01  8.171E-01 
7.562E+01   3.972E+01  8.102E-01 
7.661E+01   3.999E+01  8.033E-01 
7.760E+01   4.027E+01  7.965E-01 
7.861E+01   4.056E+01  7.897E-01 
7.963E+01   4.084E+01  7.830E-01 
8.067E+01   4.113E+01  7.763E-01 
8.172E+01   4.142E+01  7.697E-01 
8.278E+01   4.171E+01  7.631E-01 
8.385E+01   4.200E+01  7.565E-01 
8.494E+01   4.229E+01  7.500E-01 
8.605E+01   4.259E+01  7.436E-01 
8.717E+01   4.289E+01  7.372E-01 
8.830E+01   4.319E+01  7.308E-01 
8.945E+01   4.349E+01  7.245E-01 
9.061E+01   4.380E+01  7.182E-01 
9.179E+01   4.411E+01  7.119E-01 
9.298E+01   4.442E+01  7.057E-01 
9.419E+01   4.473E+01  6.996E-01 
9.541E+01   4.504E+01  6.935E-01 
9.665E+01   4.536E+01  6.874E-01 
9.791E+01   4.568E+01  6.814E-01 
9.918E+01   4.600E+01  6.754E-01 
1.005E+02   4.632E+01  6.695E-01 
1.018E+02   4.665E+01  6.636E-01 
1.031E+02   4.698E+01  6.577E-01 
1.044E+02   4.731E+01  6.519E-01 
1.058E+02   4.764E+01  6.462E-01 
1.072E+02   4.797E+01  6.404E-01 
1.086E+02   4.831E+01  6.348E-01 
1.100E+02   4.865E+01  6.291E-01 
1.114E+02   4.899E+01  6.235E-01 
1.129E+02   4.934E+01  6.180E-01 
1.143E+02   4.968E+01  6.124E-01 
1.158E+02   5.003E+01  6.070E-01 
1.173E+02   5.038E+01  6.015E-01 
1.188E+02   5.074E+01  5.961E-01 
1.204E+02   5.109E+01  5.908E-01 
1.219E+02   5.145E+01  5.855E-01 
1.235E+02   5.181E+01  5.802E-01 
1.251E+02   5.217E+01  5.750E-01 
1.268E+02   5.254E+01  5.698E-01 
1.284E+02   5.290E+01  5.646E-01 
1.301E+02   5.327E+01  5.595E-01 
1.318E+02   5.365E+01  5.544E-01 
1.335E+02   5.402E+01  5.494E-01 
1.352E+02   5.440E+01  5.444E-01 
1.370E+02   5.478E+01  5.394E-01 
1.388E+02   5.516E+01  5.345E-01 
1.406E+02   5.554E+01  5.296E-01 
1.424E+02   5.593E+01  5.248E-01 
1.442E+02   5.631E+01  5.200E-01 
1.461E+02   5.671E+01  5.152E-01 
1.480E+02   5.710E+01  4.972E-01 
1.499E+02   5.749E+01  4.926E-01 
1.519E+02   5.789E+01  4.882E-01 
1.539E+02   5.829E+01  4.837E-01 
1.559E+02   5.869E+01  4.793E-01 
1.579E+02   5.909E+01  4.749E-01 
1.599E+02   5.950E+01  4.706E-01 
1.620E+02   5.991E+01  4.663E-01 
1.641E+02   6.032E+01  4.620E-01 
1.662E+02   6.073E+01  4.577E-01 
1.684E+02   6.115E+01  4.535E-01 
1.706E+02   6.156E+01  4.493E-01 
1.728E+02   6.198E+01  4.452E-01 
1.751E+02   6.240E+01  4.411E-01 
1.773E+02   6.282E+01  4.370E-01 
1.796E+02   6.325E+01  4.329E-01 
1.820E+02   6.367E+01  4.289E-01 
1.843E+02   6.410E+01  4.249E-01 
1.867E+02   6.453E+01  4.210E-01 
1.892E+02   6.496E+01  4.170E-01 
1.916E+02   6.540E+01  4.131E-01 
1.941E+02   6.583E+01  4.093E-01 
1.966E+02   6.627E+01  4.055E-01 
1.992E+02   6.671E+01  4.017E-01 
2.018E+02   6.715E+01  3.979E-01 
2.044E+02   6.759E+01  3.941E-01 
2.071E+02   6.803E+01  3.904E-01 
2.097E+02   6.848E+01  3.868E-01 
2.125E+02   6.892E+01  3.831E-01 
2.152E+02   6.937E+01  3.795E-01 
2.180E+02   6.982E+01  3.759E-01 
2.209E+02   7.027E+01  3.723E-01 
2.237E+02   7.072E+01  3.688E-01 
2.266E+02   7.117E+01  3.653E-01 
2.296E+02   7.162E+01  3.618E-01 
2.326E+02   7.207E+01  3.584E-01 
2.356E+02   7.253E+01  3.550E-01 
2.387E+02   7.298E+01  3.516E-01 
2.418E+02   7.344E+01  3.483E-01 
2.449E+02   7.389E+01  3.449E-01 
2.481E+02   7.435E+01  3.416E-01 
2.513E+02   7.481E+01  3.384E-01 
2.546E+02   7.526E+01  3.351E-01 
2.579E+02   7.572E+01  3.319E-01 
2.612E+02   7.618E+01  3.287E-01 
2.646E+02   7.664E+01  3.255E-01 
2.681E+02   7.709E+01  3.224E-01 
2.716E+02   7.755E+01  3.193E-01 
2.751E+02   7.801E+01  3.162E-01 
2.787E+02   7.846E+01  3.132E-01 
2.823E+02   7.892E+01  3.101E-01 
2.859E+02   7.937E+01  3.071E-01 
2.897E+02   7.982E+01  3.042E-01 
2.934E+02   8.028E+01  3.012E-01 
2.972E+02   8.073E+01  2.983E-01 
3.011E+02   8.118E+01  2.954E-01 
3.050E+02   8.163E+01  2.925E-01 
3.090E+02   8.208E+01  2.897E-01 
3.130E+02   8.252E+01  2.868E-01 
3.171E+02   8.297E+01  2.840E-01 
3.212E+02   8.341E+01  2.813E-01 
3.254E+02   8.385E+01  2.785E-01 
3.296E+02   8.429E+01  2.758E-01 
3.339E+02   8.472E+01  2.731E-01 
3.382E+02   8.516E+01  2.704E-01 
3.426E+02   8.559E+01  2.677E-01 
3.471E+02   8.601E+01  2.651E-01 
3.516E+02   8.644E+01  2.625E-01 
3.561E+02   8.686E+01  2.599E-01 
3.608E+02   8.728E+01  2.574E-01 
3.655E+02   8.769E+01  2.548E-01 
3.702E+02   8.811E+01  2.523E-01 
3.750E+02   8.851E+01  2.498E-01 
3.799E+02   8.892E+01  2.474E-01 
3.848E+02   8.932E+01  2.449E-01 
3.898E+02   8.971E+01  2.425E-01 
3.949E+02   9.010E+01  2.401E-01 
4.000E+02   9.049E+01  2.377E-01 
4.052E+02   9.087E+01  2.353E-01 
4.105E+02   9.124E+01  2.330E-01 
4.158E+02   9.162E+01  2.307E-01 
4.212E+02   9.198E+01  2.284E-01 
4.267E+02   9.234E+01  2.261E-01 
4.323E+02   9.269E+01  2.238E-01 
4.379E+02   9.304E+01  2.216E-01 
4.436E+02   9.338E+01  2.194E-01 
4.493E+02   9.372E+01  2.172E-01 
4.552E+02   9.405E+01  2.150E-01 
4.611E+02   9.437E+01  2.129E-01 
4.671E+02   9.469E+01  2.107E-01 
4.731E+02   9.500E+01  2.086E-01 
4.793E+02   9.530E+01  2.065E-01 
4.855E+02   9.559E+01  2.045E-01 
4.918E+02   9.588E+01  2.024E-01 
4.982E+02   9.616E+01  2.004E-01 
5.047E+02   9.643E+01  1.984E-01 
5.113E+02   9.670E+01  1.964E-01 
5.179E+02   9.695E+01  1.944E-01 
5.246E+02   9.720E+01  1.924E-01 
5.315E+02   9.744E+01  1.905E-01 
5.384E+02   9.767E+01  1.885E-01 
5.454E+02   9.789E+01  1.866E-01 
5.524E+02   9.810E+01  1.847E-01 
5.596E+02   9.831E+01  1.829E-01 
5.669E+02   9.850E+01  1.810E-01 
5.743E+02   9.869E+01  1.792E-01 
5.817E+02   9.886E+01  1.774E-01 
5.893E+02   9.903E+01  1.756E-01 
5.969E+02   9.918E+01  1.738E-01 
6.047E+02   9.933E+01  1.720E-01 
6.126E+02   9.947E+01  1.703E-01 
6.205E+02   9.959E+01  1.685E-01 
6.286E+02   9.971E+01  1.668E-01 
6.368E+02   9.982E+01  1.651E-01 
6.450E+02   9.991E+01  1.634E-01 
6.534E+02   1.000E+02  1.618E-01 
6.619E+02   1.001E+02  1.601E-01 
6.705E+02   1.001E+02  1.585E-01 
6.792E+02   1.002E+02  1.568E-01 
6.881E+02   1.002E+02  1.552E-01 
6.970E+02   1.003E+02  1.536E-01 
7.061E+02   1.003E+02  1.521E-01 
7.152E+02   1.003E+02  1.505E-01 
7.245E+02   1.003E+02  1.490E-01 
7.339E+02   1.003E+02  1.474E-01 
7.435E+02   1.003E+02  1.459E-01 
7.531E+02   1.003E+02  1.444E-01 
7.629E+02   1.002E+02  1.429E-01 
7.728E+02   1.002E+02  1.415E-01 
7.829E+02   1.001E+02  1.400E-01 
7.931E+02   1.000E+02  1.386E-01 
8.034E+02   9.994E+01  1.371E-01 
8.138E+02   9.985E+01  1.357E-01 
8.244E+02   9.974E+01  1.343E-01 
8.351E+02   9.962E+01  1.329E-01 
8.460E+02   9.950E+01  1.315E-01 
8.570E+02   9.936E+01  1.302E-01 
8.681E+02   9.921E+01  1.288E-01 
8.794E+02   9.906E+01  1.275E-01 
8.908E+02   9.889E+01  1.262E-01 
9.024E+02   9.871E+01  1.249E-01 
9.141E+02   9.852E+01  1.236E-01 
9.260E+02   9.833E+01  1.223E-01 
9.380E+02   9.812E+01  1.210E-01 
9.502E+02   9.790E+01  1.198E-01 
9.626E+02   9.767E+01  1.185E-01 
9.751E+02   9.744E+01  1.173E-01 
9.877E+02   9.719E+01  1.161E-01 
1.001E+03   9.694E+01  1.148E-01 
1.014E+03   9.667E+01  1.136E-01 
1.027E+03   9.640E+01  1.125E-01 
1.040E+03   9.612E+01  1.113E-01 
1.054E+03   9.583E+01  1.101E-01 
1.067E+03   9.553E+01  1.090E-01 
1.081E+03   9.522E+01  1.078E-01 
1.095E+03   9.491E+01  1.067E-01 
1.109E+03   9.458E+01  1.056E-01 
1.124E+03   9.425E+01  1.045E-01 
1.138E+03   9.391E+01  1.034E-01 
1.153E+03   9.357E+01  1.023E-01 
1.168E+03   9.321E+01  1.012E-01 
1.183E+03   9.285E+01  1.002E-01 
1.199E+03   9.248E+01  9.911E-02 
1.214E+03   9.211E+01  9.807E-02 
1.230E+03   9.172E+01  9.704E-02 
1.246E+03   9.134E+01  9.602E-02 
1.262E+03   9.094E+01  9.500E-02 
1.279E+03   9.054E+01  9.400E-02 
1.295E+03   9.013E+01  9.301E-02 
1.312E+03   8.972E+01  9.203E-02 
1.329E+03   8.930E+01  9.106E-02 
1.347E+03   8.888E+01  9.010E-02 
1.364E+03   8.845E+01  8.915E-02 
1.382E+03   8.802E+01  8.821E-02 
1.400E+03   8.758E+01  8.728E-02 
1.418E+03   8.713E+01  8.635E-02 
1.436E+03   8.668E+01  8.544E-02 
1.455E+03   8.623E+01  8.454E-02 
1.474E+03   8.578E+01  8.364E-02 
1.493E+03   8.531E+01  8.275E-02 
1.513E+03   8.485E+01  8.188E-02 
1.532E+03   8.438E+01  8.101E-02 
1.552E+03   8.391E+01  8.015E-02 
1.572E+03   8.344E+01  7.930E-02 
1.593E+03   8.296E+01  7.846E-02 
1.613E+03   8.248E+01  7.762E-02 
1.634E+03   8.199E+01  7.680E-02 
1.656E+03   8.151E+01  7.598E-02 
1.677E+03   8.102E+01  7.517E-02 
1.699E+03   8.053E+01  7.437E-02 
1.721E+03   8.003E+01  7.358E-02 
1.743E+03   7.954E+01  7.280E-02 
1.766E+03   7.904E+01  7.202E-02 
1.789E+03   7.854E+01  7.125E-02 
1.812E+03   7.804E+01  7.049E-02 
1.836E+03   7.754E+01  6.974E-02 
1.860E+03   7.704E+01  6.900E-02 
