Ion = Hydrogen    . Mass = 1.0079
Tgt = Fe (Solid). Density = 7.8658 g/cm3
Stopping Units =  eV/(1E15 atoms/cm2)
Energy(keV)  S(Elec)    S(Nuc)
1.000E+00   3.645E+00  4.728E-01 
1.012E+00   3.666E+00  4.726E-01 
1.023E+00   3.687E+00  4.724E-01 
1.035E+00   3.708E+00  4.721E-01 
1.047E+00   3.730E+00  4.719E-01 
1.059E+00   3.751E+00  4.716E-01 
1.072E+00   3.773E+00  4.713E-01 
1.084E+00   3.795E+00  4.711E-01 
1.097E+00   3.817E+00  4.708E-01 
1.109E+00   3.839E+00  4.705E-01 
1.122E+00   3.861E+00  4.701E-01 
1.135E+00   3.883E+00  4.698E-01 
1.148E+00   3.906E+00  4.695E-01 
1.162E+00   3.928E+00  4.691E-01 
1.175E+00   3.951E+00  4.687E-01 
1.189E+00   3.974E+00  4.684E-01 
1.203E+00   3.997E+00  4.680E-01 
1.217E+00   4.020E+00  4.676E-01 
1.231E+00   4.043E+00  4.672E-01 
1.245E+00   4.066E+00  4.668E-01 
1.259E+00   4.090E+00  4.663E-01 
1.274E+00   4.114E+00  4.659E-01 
1.289E+00   4.137E+00  4.654E-01 
1.304E+00   4.161E+00  4.649E-01 
1.319E+00   4.185E+00  4.645E-01 
1.334E+00   4.210E+00  4.640E-01 
1.350E+00   4.234E+00  4.635E-01 
1.365E+00   4.258E+00  4.630E-01 
1.381E+00   4.283E+00  4.624E-01 
1.397E+00   4.308E+00  4.619E-01 
1.413E+00   4.333E+00  4.613E-01 
1.430E+00   4.358E+00  4.608E-01 
1.446E+00   4.383E+00  4.602E-01 
1.463E+00   4.408E+00  4.596E-01 
1.480E+00   4.434E+00  4.590E-01 
1.497E+00   4.460E+00  4.584E-01 
1.515E+00   4.485E+00  4.578E-01 
1.532E+00   4.511E+00  4.572E-01 
1.550E+00   4.537E+00  4.565E-01 
1.568E+00   4.564E+00  4.559E-01 
1.586E+00   4.590E+00  4.552E-01 
1.605E+00   4.616E+00  4.546E-01 
1.623E+00   4.643E+00  4.539E-01 
1.642E+00   4.670E+00  4.532E-01 
1.661E+00   4.697E+00  4.525E-01 
1.680E+00   4.724E+00  4.518E-01 
1.700E+00   4.752E+00  4.510E-01 
1.719E+00   4.779E+00  4.503E-01 
1.739E+00   4.807E+00  4.495E-01 
1.760E+00   4.834E+00  4.488E-01 
1.780E+00   4.862E+00  4.480E-01 
1.801E+00   4.891E+00  4.472E-01 
1.822E+00   4.919E+00  4.464E-01 
1.843E+00   4.947E+00  4.456E-01 
1.864E+00   4.976E+00  4.448E-01 
1.886E+00   5.005E+00  4.440E-01 
1.908E+00   5.034E+00  4.432E-01 
1.930E+00   5.063E+00  4.423E-01 
1.952E+00   5.092E+00  4.414E-01 
1.975E+00   5.121E+00  4.406E-01 
1.998E+00   5.151E+00  4.397E-01 
2.021E+00   5.181E+00  4.388E-01 
2.044E+00   5.214E+00  4.379E-01 
2.068E+00   5.247E+00  4.370E-01 
2.092E+00   5.280E+00  4.361E-01 
2.116E+00   5.313E+00  4.352E-01 
2.141E+00   5.346E+00  4.342E-01 
2.166E+00   5.380E+00  4.333E-01 
2.191E+00   5.413E+00  4.323E-01 
2.216E+00   5.447E+00  4.314E-01 
2.242E+00   5.481E+00  4.304E-01 
2.268E+00   5.515E+00  4.294E-01 
2.294E+00   5.550E+00  4.284E-01 
2.321E+00   5.584E+00  4.274E-01 
2.348E+00   5.619E+00  4.264E-01 
2.375E+00   5.653E+00  4.254E-01 
2.402E+00   5.688E+00  4.243E-01 
2.430E+00   5.723E+00  4.233E-01 
2.458E+00   5.758E+00  4.222E-01 
2.487E+00   5.793E+00  4.212E-01 
2.516E+00   5.829E+00  4.201E-01 
2.545E+00   5.864E+00  4.190E-01 
2.574E+00   5.900E+00  4.180E-01 
2.604E+00   5.936E+00  4.169E-01 
2.635E+00   5.971E+00  4.158E-01 
2.665E+00   6.007E+00  4.146E-01 
2.696E+00   6.043E+00  4.135E-01 
2.727E+00   6.079E+00  4.124E-01 
2.759E+00   6.116E+00  4.113E-01 
2.791E+00   6.152E+00  4.101E-01 
2.823E+00   6.188E+00  4.090E-01 
2.856E+00   6.224E+00  4.078E-01 
2.889E+00   6.261E+00  4.066E-01 
2.923E+00   6.297E+00  4.055E-01 
2.957E+00   6.334E+00  4.043E-01 
2.991E+00   6.370E+00  4.031E-01 
3.026E+00   6.407E+00  4.019E-01 
3.061E+00   6.443E+00  4.007E-01 
3.096E+00   6.479E+00  3.995E-01 
3.132E+00   6.516E+00  3.983E-01 
3.168E+00   6.552E+00  3.970E-01 
3.205E+00   6.588E+00  3.958E-01 
3.242E+00   6.625E+00  3.945E-01 
3.280E+00   6.661E+00  3.933E-01 
3.318E+00   6.697E+00  3.920E-01 
3.356E+00   6.733E+00  3.908E-01 
3.395E+00   6.769E+00  3.895E-01 
3.435E+00   6.804E+00  3.882E-01 
3.475E+00   6.840E+00  3.870E-01 
3.515E+00   6.875E+00  3.857E-01 
3.556E+00   6.911E+00  3.844E-01 
3.597E+00   6.946E+00  3.831E-01 
3.639E+00   6.980E+00  3.818E-01 
3.681E+00   7.015E+00  3.805E-01 
3.724E+00   7.049E+00  3.791E-01 
3.767E+00   7.083E+00  3.778E-01 
3.810E+00   7.117E+00  3.765E-01 
3.855E+00   7.151E+00  3.752E-01 
3.899E+00   7.184E+00  3.738E-01 
3.945E+00   7.217E+00  3.725E-01 
3.990E+00   7.250E+00  3.711E-01 
4.037E+00   7.282E+00  3.698E-01 
4.083E+00   7.314E+00  3.684E-01 
4.131E+00   7.346E+00  3.671E-01 
4.179E+00   7.377E+00  3.657E-01 
4.227E+00   7.409E+00  3.643E-01 
4.276E+00   7.439E+00  3.629E-01 
4.326E+00   7.470E+00  3.616E-01 
4.376E+00   7.500E+00  3.602E-01 
4.427E+00   7.530E+00  3.588E-01 
4.478E+00   7.559E+00  3.574E-01 
4.530E+00   7.588E+00  3.560E-01 
4.583E+00   7.617E+00  3.546E-01 
4.636E+00   7.646E+00  3.532E-01 
4.690E+00   7.674E+00  3.518E-01 
4.744E+00   7.702E+00  3.504E-01 
4.799E+00   7.730E+00  3.489E-01 
4.855E+00   7.758E+00  3.475E-01 
4.911E+00   7.786E+00  3.461E-01 
4.968E+00   7.813E+00  3.447E-01 
5.026E+00   7.841E+00  3.433E-01 
5.084E+00   7.868E+00  3.418E-01 
5.143E+00   7.896E+00  3.404E-01 
5.202E+00   7.923E+00  3.390E-01 
5.263E+00   7.951E+00  3.375E-01 
5.324E+00   7.979E+00  3.361E-01 
5.386E+00   8.007E+00  3.346E-01 
5.448E+00   8.036E+00  3.332E-01 
5.511E+00   8.065E+00  3.317E-01 
5.575E+00   8.094E+00  3.303E-01 
5.640E+00   8.124E+00  3.288E-01 
5.705E+00   8.154E+00  3.274E-01 
5.771E+00   8.185E+00  3.259E-01 
5.838E+00   8.217E+00  3.245E-01 
5.906E+00   8.249E+00  3.230E-01 
5.975E+00   8.282E+00  3.215E-01 
6.044E+00   8.316E+00  3.201E-01 
6.114E+00   8.351E+00  3.186E-01 
6.185E+00   8.387E+00  3.171E-01 
6.257E+00   8.423E+00  3.157E-01 
6.329E+00   8.461E+00  3.142E-01 
6.403E+00   8.500E+00  3.127E-01 
6.477E+00   8.539E+00  3.113E-01 
6.552E+00   8.580E+00  3.098E-01 
6.628E+00   8.622E+00  3.083E-01 
6.705E+00   8.666E+00  3.069E-01 
6.783E+00   8.710E+00  3.054E-01 
6.861E+00   8.756E+00  3.039E-01 
6.941E+00   8.802E+00  3.025E-01 
7.021E+00   8.850E+00  3.010E-01 
7.103E+00   8.900E+00  2.995E-01 
7.185E+00   8.950E+00  2.980E-01 
7.269E+00   9.002E+00  2.966E-01 
7.353E+00   9.055E+00  2.951E-01 
7.438E+00   9.109E+00  2.936E-01 
7.524E+00   9.164E+00  2.922E-01 
7.612E+00   9.220E+00  2.907E-01 
7.700E+00   9.278E+00  2.892E-01 
7.789E+00   9.337E+00  2.878E-01 
7.880E+00   9.397E+00  2.863E-01 
7.971E+00   9.458E+00  2.848E-01 
8.064E+00   9.520E+00  2.834E-01 
8.157E+00   9.583E+00  2.819E-01 
8.252E+00   9.648E+00  2.804E-01 
8.347E+00   9.713E+00  2.790E-01 
8.444E+00   9.779E+00  2.775E-01 
8.542E+00   9.847E+00  2.760E-01 
8.641E+00   9.915E+00  2.746E-01 
8.741E+00   9.984E+00  2.731E-01 
8.843E+00   1.005E+01  2.717E-01 
8.945E+00   1.013E+01  2.702E-01 
9.049E+00   1.020E+01  2.688E-01 
9.154E+00   1.027E+01  2.673E-01 
9.260E+00   1.034E+01  2.659E-01 
9.368E+00   1.042E+01  2.644E-01 
9.476E+00   1.049E+01  2.630E-01 
9.586E+00   1.057E+01  2.615E-01 
9.698E+00   1.065E+01  2.601E-01 
9.810E+00   1.072E+01  2.587E-01 
9.924E+00   1.080E+01  2.572E-01 
1.004E+01   1.088E+01  2.558E-01 
1.016E+01   1.096E+01  2.544E-01 
1.027E+01   1.104E+01  2.529E-01 
1.039E+01   1.112E+01  2.515E-01 
1.051E+01   1.120E+01  2.501E-01 
1.063E+01   1.128E+01  2.487E-01 
1.076E+01   1.137E+01  2.473E-01 
1.088E+01   1.145E+01  2.458E-01 
1.101E+01   1.153E+01  2.444E-01 
1.114E+01   1.162E+01  2.430E-01 
1.127E+01   1.170E+01  2.416E-01 
1.140E+01   1.179E+01  2.402E-01 
1.153E+01   1.187E+01  2.388E-01 
1.166E+01   1.196E+01  2.374E-01 
1.180E+01   1.205E+01  2.360E-01 
1.193E+01   1.214E+01  2.347E-01 
1.207E+01   1.222E+01  2.333E-01 
1.221E+01   1.231E+01  2.319E-01 
1.235E+01   1.240E+01  2.305E-01 
1.250E+01   1.249E+01  2.291E-01 
1.264E+01   1.258E+01  2.278E-01 
1.279E+01   1.267E+01  2.264E-01 
1.294E+01   1.276E+01  2.250E-01 
1.309E+01   1.285E+01  2.237E-01 
1.324E+01   1.294E+01  2.223E-01 
1.339E+01   1.304E+01  2.210E-01 
1.355E+01   1.313E+01  2.196E-01 
1.371E+01   1.322E+01  2.183E-01 
1.387E+01   1.332E+01  2.169E-01 
1.403E+01   1.341E+01  2.156E-01 
1.419E+01   1.350E+01  2.143E-01 
1.435E+01   1.360E+01  2.129E-01 
1.452E+01   1.369E+01  2.116E-01 
1.469E+01   1.379E+01  2.103E-01 
1.486E+01   1.389E+01  2.090E-01 
1.503E+01   1.398E+01  2.077E-01 
1.521E+01   1.408E+01  2.064E-01 
1.538E+01   1.418E+01  2.051E-01 
1.556E+01   1.427E+01  2.038E-01 
1.574E+01   1.437E+01  2.025E-01 
1.592E+01   1.447E+01  2.012E-01 
1.611E+01   1.457E+01  1.999E-01 
1.629E+01   1.467E+01  1.986E-01 
1.648E+01   1.477E+01  1.973E-01 
1.667E+01   1.486E+01  1.961E-01 
1.687E+01   1.496E+01  1.948E-01 
1.706E+01   1.507E+01  1.935E-01 
1.726E+01   1.517E+01  1.923E-01 
1.746E+01   1.527E+01  1.910E-01 
1.766E+01   1.537E+01  1.898E-01 
1.787E+01   1.547E+01  1.886E-01 
1.808E+01   1.557E+01  1.873E-01 
1.829E+01   1.567E+01  1.861E-01 
1.850E+01   1.578E+01  1.849E-01 
1.871E+01   1.588E+01  1.836E-01 
1.893E+01   1.598E+01  1.824E-01 
1.915E+01   1.609E+01  1.812E-01 
1.937E+01   1.619E+01  1.800E-01 
1.960E+01   1.629E+01  1.788E-01 
1.982E+01   1.640E+01  1.776E-01 
2.005E+01   1.650E+01  1.764E-01 
2.029E+01   1.661E+01  1.752E-01 
2.052E+01   1.671E+01  1.740E-01 
2.076E+01   1.682E+01  1.729E-01 
2.100E+01   1.692E+01  1.717E-01 
2.124E+01   1.703E+01  1.705E-01 
2.149E+01   1.714E+01  1.694E-01 
2.174E+01   1.724E+01  1.682E-01 
2.199E+01   1.735E+01  1.670E-01 
2.225E+01   1.746E+01  1.659E-01 
2.250E+01   1.756E+01  1.648E-01 
2.277E+01   1.767E+01  1.636E-01 
2.303E+01   1.778E+01  1.625E-01 
2.330E+01   1.789E+01  1.614E-01 
2.357E+01   1.799E+01  1.602E-01 
2.384E+01   1.810E+01  1.591E-01 
2.412E+01   1.821E+01  1.580E-01 
2.440E+01   1.832E+01  1.569E-01 
2.468E+01   1.843E+01  1.558E-01 
2.497E+01   1.854E+01  1.547E-01 
2.526E+01   1.865E+01  1.536E-01 
2.555E+01   1.875E+01  1.526E-01 
2.584E+01   1.886E+01  1.515E-01 
2.614E+01   1.897E+01  1.504E-01 
2.645E+01   1.908E+01  1.493E-01 
2.675E+01   1.919E+01  1.483E-01 
2.707E+01   1.930E+01  1.472E-01 
2.738E+01   1.941E+01  1.462E-01 
2.770E+01   1.952E+01  1.451E-01 
2.802E+01   1.963E+01  1.441E-01 
2.834E+01   1.974E+01  1.430E-01 
2.867E+01   1.985E+01  1.420E-01 
2.900E+01   1.996E+01  1.410E-01 
2.934E+01   2.007E+01  1.400E-01 
2.968E+01   2.018E+01  1.390E-01 
3.003E+01   2.029E+01  1.379E-01 
3.037E+01   2.040E+01  1.369E-01 
3.073E+01   2.051E+01  1.359E-01 
3.108E+01   2.062E+01  1.350E-01 
3.144E+01   2.073E+01  1.340E-01 
3.181E+01   2.084E+01  1.330E-01 
3.218E+01   2.095E+01  1.320E-01 
3.255E+01   2.106E+01  1.310E-01 
3.293E+01   2.117E+01  1.301E-01 
3.331E+01   2.128E+01  1.291E-01 
3.370E+01   2.138E+01  1.282E-01 
3.409E+01   2.149E+01  1.272E-01 
3.448E+01   2.160E+01  1.263E-01 
3.488E+01   2.171E+01  1.253E-01 
3.529E+01   2.182E+01  1.244E-01 
3.570E+01   2.193E+01  1.235E-01 
3.611E+01   2.203E+01  1.225E-01 
3.653E+01   2.214E+01  1.216E-01 
3.695E+01   2.225E+01  1.207E-01 
3.738E+01   2.236E+01  1.198E-01 
3.781E+01   2.246E+01  1.189E-01 
3.825E+01   2.257E+01  1.180E-01 
3.870E+01   2.268E+01  1.171E-01 
3.915E+01   2.278E+01  1.162E-01 
3.960E+01   2.289E+01  1.153E-01 
4.006E+01   2.299E+01  1.145E-01 
4.052E+01   2.310E+01  1.136E-01 
4.099E+01   2.320E+01  1.127E-01 
4.147E+01   2.331E+01  1.119E-01 
4.195E+01   2.341E+01  1.110E-01 
4.244E+01   2.351E+01  1.102E-01 
4.293E+01   2.361E+01  1.093E-01 
4.343E+01   2.372E+01  1.085E-01 
4.393E+01   2.382E+01  1.077E-01 
4.444E+01   2.392E+01  1.068E-01 
4.496E+01   2.402E+01  1.060E-01 
4.548E+01   2.412E+01  1.052E-01 
4.600E+01   2.422E+01  1.044E-01 
4.654E+01   2.432E+01  1.036E-01 
4.708E+01   2.441E+01  1.028E-01 
4.762E+01   2.451E+01  1.020E-01 
4.818E+01   2.461E+01  1.012E-01 
4.873E+01   2.470E+01  1.004E-01 
4.930E+01   2.480E+01  9.959E-02 
4.987E+01   2.489E+01  9.881E-02 
5.045E+01   2.499E+01  9.804E-02 
5.104E+01   2.508E+01  9.727E-02 
5.163E+01   2.517E+01  9.650E-02 
5.223E+01   2.526E+01  9.574E-02 
5.283E+01   2.535E+01  9.499E-02 
5.344E+01   2.544E+01  9.424E-02 
5.406E+01   2.553E+01  9.349E-02 
5.469E+01   2.562E+01  9.275E-02 
5.533E+01   2.571E+01  9.202E-02 
5.597E+01   2.579E+01  9.129E-02 
5.662E+01   2.588E+01  9.056E-02 
5.727E+01   2.596E+01  8.984E-02 
5.794E+01   2.605E+01  8.913E-02 
5.861E+01   2.613E+01  8.842E-02 
5.929E+01   2.621E+01  8.771E-02 
5.998E+01   2.629E+01  8.701E-02 
6.067E+01   2.637E+01  8.631E-02 
6.138E+01   2.645E+01  8.562E-02 
6.209E+01   2.652E+01  8.493E-02 
6.281E+01   2.660E+01  8.425E-02 
6.354E+01   2.668E+01  8.357E-02 
6.427E+01   2.675E+01  8.290E-02 
6.502E+01   2.682E+01  8.223E-02 
6.577E+01   2.689E+01  8.156E-02 
6.654E+01   2.696E+01  8.090E-02 
6.731E+01   2.703E+01  8.025E-02 
6.809E+01   2.710E+01  7.960E-02 
6.888E+01   2.717E+01  7.895E-02 
6.968E+01   2.723E+01  7.831E-02 
7.049E+01   2.729E+01  7.767E-02 
7.130E+01   2.736E+01  7.704E-02 
7.213E+01   2.742E+01  7.641E-02 
7.297E+01   2.748E+01  7.578E-02 
7.381E+01   2.754E+01  7.516E-02 
7.467E+01   2.759E+01  7.455E-02 
7.554E+01   2.765E+01  7.394E-02 
7.641E+01   2.770E+01  7.073E-02 
7.730E+01   2.776E+01  7.015E-02 
7.820E+01   2.781E+01  6.958E-02 
7.910E+01   2.786E+01  6.902E-02 
8.002E+01   2.791E+01  6.845E-02 
8.095E+01   2.795E+01  6.789E-02 
8.189E+01   2.800E+01  6.734E-02 
8.284E+01   2.804E+01  6.679E-02 
8.380E+01   2.809E+01  6.624E-02 
8.477E+01   2.813E+01  6.570E-02 
8.575E+01   2.817E+01  6.516E-02 
8.675E+01   2.820E+01  6.462E-02 
8.775E+01   2.824E+01  6.409E-02 
8.877E+01   2.827E+01  6.356E-02 
8.980E+01   2.831E+01  6.304E-02 
9.084E+01   2.834E+01  6.251E-02 
9.190E+01   2.837E+01  6.200E-02 
9.296E+01   2.840E+01  6.148E-02 
9.404E+01   2.842E+01  6.097E-02 
9.513E+01   2.845E+01  6.047E-02 
9.624E+01   2.847E+01  5.996E-02 
9.735E+01   2.849E+01  5.946E-02 
9.848E+01   2.851E+01  5.897E-02 
9.962E+01   2.853E+01  5.847E-02 
1.008E+02   2.855E+01  5.799E-02 
1.019E+02   2.856E+01  5.750E-02 
1.031E+02   2.858E+01  5.702E-02 
1.043E+02   2.859E+01  5.654E-02 
1.055E+02   2.860E+01  5.606E-02 
1.068E+02   2.861E+01  5.559E-02 
1.080E+02   2.862E+01  5.513E-02 
1.093E+02   2.862E+01  5.466E-02 
1.105E+02   2.862E+01  5.420E-02 
1.118E+02   2.862E+01  5.374E-02 
1.131E+02   2.862E+01  5.329E-02 
1.144E+02   2.862E+01  5.284E-02 
1.157E+02   2.862E+01  5.239E-02 
1.171E+02   2.861E+01  5.194E-02 
1.184E+02   2.861E+01  5.150E-02 
1.198E+02   2.860E+01  5.107E-02 
1.212E+02   2.859E+01  5.063E-02 
1.226E+02   2.858E+01  5.020E-02 
1.240E+02   2.856E+01  4.977E-02 
1.255E+02   2.855E+01  4.935E-02 
1.269E+02   2.853E+01  4.892E-02 
1.284E+02   2.851E+01  4.851E-02 
1.299E+02   2.849E+01  4.809E-02 
1.314E+02   2.847E+01  4.768E-02 
1.329E+02   2.844E+01  4.727E-02 
1.345E+02   2.842E+01  4.686E-02 
1.360E+02   2.839E+01  4.646E-02 
1.376E+02   2.836E+01  4.606E-02 
1.392E+02   2.833E+01  4.566E-02 
1.408E+02   2.830E+01  4.527E-02 
1.424E+02   2.827E+01  4.488E-02 
1.441E+02   2.823E+01  4.449E-02 
1.458E+02   2.819E+01  4.411E-02 
1.475E+02   2.816E+01  4.373E-02 
1.492E+02   2.812E+01  4.335E-02 
1.509E+02   2.807E+01  4.297E-02 
1.526E+02   2.803E+01  4.260E-02 
1.544E+02   2.799E+01  4.223E-02 
1.562E+02   2.794E+01  4.186E-02 
1.580E+02   2.789E+01  4.150E-02 
1.598E+02   2.784E+01  4.114E-02 
1.617E+02   2.779E+01  4.078E-02 
1.636E+02   2.774E+01  4.042E-02 
1.655E+02   2.768E+01  4.007E-02 
1.674E+02   2.763E+01  3.972E-02 
1.693E+02   2.757E+01  3.937E-02 
1.713E+02   2.751E+01  3.903E-02 
1.733E+02   2.745E+01  3.869E-02 
1.753E+02   2.739E+01  3.835E-02 
1.773E+02   2.733E+01  3.801E-02 
1.794E+02   2.727E+01  3.768E-02 
1.815E+02   2.720E+01  3.735E-02 
1.836E+02   2.714E+01  3.702E-02 
1.857E+02   2.707E+01  3.669E-02 
1.879E+02   2.700E+01  3.637E-02 
1.900E+02   2.693E+01  3.605E-02 
1.922E+02   2.686E+01  3.573E-02 
1.945E+02   2.678E+01  3.541E-02 
1.967E+02   2.671E+01  3.510E-02 
1.990E+02   2.663E+01  3.479E-02 
2.013E+02   2.656E+01  3.448E-02 
2.036E+02   2.648E+01  3.418E-02 
2.060E+02   2.640E+01  3.387E-02 
2.084E+02   2.632E+01  3.357E-02 
2.108E+02   2.624E+01  3.327E-02 
2.133E+02   2.616E+01  3.298E-02 
2.157E+02   2.607E+01  3.269E-02 
2.182E+02   2.599E+01  3.239E-02 
2.208E+02   2.590E+01  3.211E-02 
2.233E+02   2.582E+01  3.182E-02 
2.259E+02   2.573E+01  3.154E-02 
2.285E+02   2.564E+01  3.125E-02 
2.312E+02   2.555E+01  3.098E-02 
2.339E+02   2.546E+01  3.070E-02 
2.366E+02   2.537E+01  3.042E-02 
2.393E+02   2.528E+01  3.015E-02 
2.421E+02   2.518E+01  2.988E-02 
2.449E+02   2.509E+01  2.961E-02 
2.478E+02   2.500E+01  2.935E-02 
2.506E+02   2.490E+01  2.908E-02 
2.535E+02   2.480E+01  2.882E-02 
2.565E+02   2.471E+01  2.856E-02 
2.595E+02   2.461E+01  2.831E-02 
2.625E+02   2.451E+01  2.805E-02 
2.655E+02   2.441E+01  2.780E-02 
2.686E+02   2.431E+01  2.755E-02 
2.717E+02   2.421E+01  2.730E-02 
2.749E+02   2.411E+01  2.705E-02 
2.780E+02   2.401E+01  2.681E-02 
2.813E+02   2.390E+01  2.657E-02 
2.845E+02   2.380E+01  2.633E-02 
2.878E+02   2.370E+01  2.609E-02 
2.912E+02   2.359E+01  2.585E-02 
2.945E+02   2.349E+01  2.562E-02 
2.980E+02   2.338E+01  2.539E-02 
3.014E+02   2.328E+01  2.515E-02 
3.049E+02   2.317E+01  2.493E-02 
3.085E+02   2.306E+01  2.470E-02 
3.120E+02   2.295E+01  2.448E-02 
3.156E+02   2.285E+01  2.425E-02 
3.193E+02   2.274E+01  2.403E-02 
3.230E+02   2.263E+01  2.381E-02 
3.268E+02   2.252E+01  2.360E-02 
3.306E+02   2.241E+01  2.338E-02 
3.344E+02   2.230E+01  2.317E-02 
3.383E+02   2.219E+01  2.296E-02 
3.422E+02   2.208E+01  2.275E-02 
3.462E+02   2.197E+01  2.254E-02 
3.502E+02   2.186E+01  2.233E-02 
3.542E+02   2.175E+01  2.213E-02 
3.583E+02   2.164E+01  2.192E-02 
3.625E+02   2.153E+01  2.172E-02 
3.667E+02   2.141E+01  2.152E-02 
3.710E+02   2.130E+01  2.133E-02 
3.753E+02   2.119E+01  2.113E-02 
3.796E+02   2.108E+01  2.094E-02 
3.840E+02   2.096E+01  2.075E-02 
3.885E+02   2.085E+01  2.055E-02 
3.930E+02   2.074E+01  2.037E-02 
3.975E+02   2.063E+01  2.018E-02 
4.021E+02   2.051E+01  1.999E-02 
4.068E+02   2.040E+01  1.981E-02 
4.115E+02   2.029E+01  1.963E-02 
4.163E+02   2.017E+01  1.944E-02 
4.211E+02   2.006E+01  1.926E-02 
4.260E+02   1.995E+01  1.909E-02 
4.310E+02   1.983E+01  1.891E-02 
4.360E+02   1.972E+01  1.874E-02 
4.410E+02   1.961E+01  1.856E-02 
4.461E+02   1.950E+01  1.839E-02 
4.513E+02   1.938E+01  1.822E-02 
4.565E+02   1.927E+01  1.805E-02 
4.618E+02   1.916E+01  1.788E-02 
4.672E+02   1.904E+01  1.772E-02 
4.726E+02   1.893E+01  1.755E-02 
4.781E+02   1.882E+01  1.739E-02 
4.836E+02   1.871E+01  1.723E-02 
4.892E+02   1.859E+01  1.707E-02 
4.949E+02   1.848E+01  1.691E-02 
5.007E+02   1.837E+01  1.675E-02 
5.065E+02   1.826E+01  1.660E-02 
5.123E+02   1.815E+01  1.644E-02 
5.183E+02   1.804E+01  1.629E-02 
5.243E+02   1.793E+01  1.614E-02 
5.304E+02   1.781E+01  1.599E-02 
5.365E+02   1.770E+01  1.584E-02 
5.428E+02   1.759E+01  1.569E-02 
5.490E+02   1.748E+01  1.554E-02 
5.554E+02   1.737E+01  1.540E-02 
5.619E+02   1.726E+01  1.525E-02 
5.684E+02   1.715E+01  1.511E-02 
5.750E+02   1.704E+01  1.497E-02 
5.816E+02   1.694E+01  1.483E-02 
5.884E+02   1.683E+01  1.469E-02 
5.952E+02   1.672E+01  1.455E-02 
6.021E+02   1.661E+01  1.442E-02 
6.091E+02   1.650E+01  1.428E-02 
6.162E+02   1.640E+01  1.415E-02 
6.233E+02   1.629E+01  1.401E-02 
6.305E+02   1.618E+01  1.388E-02 
6.378E+02   1.608E+01  1.375E-02 
6.452E+02   1.597E+01  1.362E-02 
6.527E+02   1.586E+01  1.349E-02 
6.603E+02   1.576E+01  1.337E-02 
6.680E+02   1.565E+01  1.324E-02 
6.757E+02   1.555E+01  1.312E-02 
6.835E+02   1.544E+01  1.299E-02 
6.915E+02   1.534E+01  1.287E-02 
6.995E+02   1.524E+01  1.275E-02 
7.076E+02   1.513E+01  1.263E-02 
7.158E+02   1.503E+01  1.251E-02 
7.241E+02   1.493E+01  1.239E-02 
7.325E+02   1.483E+01  1.227E-02 
7.410E+02   1.473E+01  1.216E-02 
7.496E+02   1.462E+01  1.204E-02 
7.583E+02   1.452E+01  1.193E-02 
7.671E+02   1.442E+01  1.182E-02 
7.760E+02   1.432E+01  1.170E-02 
7.850E+02   1.422E+01  1.159E-02 
7.941E+02   1.413E+01  1.148E-02 
8.033E+02   1.403E+01  1.137E-02 
8.126E+02   1.393E+01  1.127E-02 
8.221E+02   1.383E+01  1.116E-02 
8.316E+02   1.373E+01  1.105E-02 
