Ion = Hydrogen    . Mass = 1.0079
Tgt =  O (Solid). Density = 1.426 g/cm3
Stopping Units =  eV/(1E15 atoms/cm2)
Energy(keV)  S(Elec)    S(Nuc)
1.000E+00   2.295E+00  5.113E-01 
1.012E+00   2.308E+00  5.094E-01 
1.023E+00   2.322E+00  5.075E-01 
1.035E+00   2.335E+00  5.056E-01 
1.047E+00   2.349E+00  5.037E-01 
1.059E+00   2.362E+00  5.018E-01 
1.072E+00   2.376E+00  4.999E-01 
1.084E+00   2.390E+00  4.979E-01 
1.097E+00   2.403E+00  4.960E-01 
1.109E+00   2.417E+00  4.941E-01 
1.122E+00   2.431E+00  4.921E-01 
1.135E+00   2.445E+00  4.902E-01 
1.148E+00   2.459E+00  4.882E-01 
1.162E+00   2.474E+00  4.863E-01 
1.175E+00   2.488E+00  4.843E-01 
1.189E+00   2.502E+00  4.823E-01 
1.203E+00   2.517E+00  4.804E-01 
1.217E+00   2.531E+00  4.784E-01 
1.231E+00   2.546E+00  4.764E-01 
1.245E+00   2.561E+00  4.744E-01 
1.259E+00   2.576E+00  4.724E-01 
1.274E+00   2.590E+00  4.704E-01 
1.289E+00   2.605E+00  4.684E-01 
1.304E+00   2.621E+00  4.664E-01 
1.319E+00   2.636E+00  4.644E-01 
1.334E+00   2.651E+00  4.624E-01 
1.350E+00   2.666E+00  4.604E-01 
1.365E+00   2.682E+00  4.584E-01 
1.381E+00   2.697E+00  4.564E-01 
1.397E+00   2.713E+00  4.543E-01 
1.413E+00   2.728E+00  4.523E-01 
1.430E+00   2.744E+00  4.503E-01 
1.446E+00   2.760E+00  4.483E-01 
1.463E+00   2.776E+00  4.462E-01 
1.480E+00   2.792E+00  4.442E-01 
1.497E+00   2.808E+00  4.422E-01 
1.515E+00   2.824E+00  4.401E-01 
1.532E+00   2.841E+00  4.381E-01 
1.550E+00   2.857E+00  4.360E-01 
1.568E+00   2.874E+00  4.340E-01 
1.586E+00   2.890E+00  4.320E-01 
1.605E+00   2.907E+00  4.299E-01 
1.623E+00   2.924E+00  4.279E-01 
1.642E+00   2.941E+00  4.258E-01 
1.661E+00   2.958E+00  4.238E-01 
1.680E+00   2.975E+00  4.217E-01 
1.700E+00   2.992E+00  4.197E-01 
1.719E+00   3.009E+00  4.176E-01 
1.739E+00   3.027E+00  4.156E-01 
1.760E+00   3.044E+00  4.135E-01 
1.780E+00   3.062E+00  4.115E-01 
1.801E+00   3.080E+00  4.094E-01 
1.822E+00   3.097E+00  4.074E-01 
1.843E+00   3.115E+00  4.053E-01 
1.864E+00   3.133E+00  4.033E-01 
1.886E+00   3.152E+00  4.012E-01 
1.908E+00   3.170E+00  3.992E-01 
1.930E+00   3.188E+00  3.972E-01 
1.952E+00   3.207E+00  3.951E-01 
1.975E+00   3.225E+00  3.931E-01 
1.998E+00   3.244E+00  3.910E-01 
2.021E+00   3.261E+00  3.890E-01 
2.044E+00   3.275E+00  3.870E-01 
2.068E+00   3.289E+00  3.849E-01 
2.092E+00   3.303E+00  3.829E-01 
2.116E+00   3.318E+00  3.809E-01 
2.141E+00   3.332E+00  3.788E-01 
2.166E+00   3.346E+00  3.768E-01 
2.191E+00   3.361E+00  3.748E-01 
2.216E+00   3.375E+00  3.728E-01 
2.242E+00   3.390E+00  3.708E-01 
2.268E+00   3.405E+00  3.687E-01 
2.294E+00   3.420E+00  3.667E-01 
2.321E+00   3.435E+00  3.647E-01 
2.348E+00   3.450E+00  3.627E-01 
2.375E+00   3.465E+00  3.607E-01 
2.402E+00   3.481E+00  3.587E-01 
2.430E+00   3.496E+00  3.567E-01 
2.458E+00   3.512E+00  3.547E-01 
2.487E+00   3.528E+00  3.527E-01 
2.516E+00   3.544E+00  3.507E-01 
2.545E+00   3.560E+00  3.487E-01 
2.574E+00   3.576E+00  3.468E-01 
2.604E+00   3.592E+00  3.448E-01 
2.635E+00   3.608E+00  3.428E-01 
2.665E+00   3.625E+00  3.408E-01 
2.696E+00   3.641E+00  3.389E-01 
2.727E+00   3.658E+00  3.369E-01 
2.759E+00   3.675E+00  3.350E-01 
2.791E+00   3.692E+00  3.330E-01 
2.823E+00   3.709E+00  3.311E-01 
2.856E+00   3.726E+00  3.291E-01 
2.889E+00   3.744E+00  3.272E-01 
2.923E+00   3.761E+00  3.253E-01 
2.957E+00   3.779E+00  3.233E-01 
2.991E+00   3.796E+00  3.214E-01 
3.026E+00   3.814E+00  3.195E-01 
3.061E+00   3.832E+00  3.176E-01 
3.096E+00   3.850E+00  3.157E-01 
3.132E+00   3.869E+00  3.138E-01 
3.168E+00   3.887E+00  3.119E-01 
3.205E+00   3.906E+00  3.100E-01 
3.242E+00   3.924E+00  3.081E-01 
3.280E+00   3.943E+00  3.062E-01 
3.318E+00   3.962E+00  3.043E-01 
3.356E+00   3.981E+00  3.025E-01 
3.395E+00   4.001E+00  3.006E-01 
3.435E+00   4.020E+00  2.987E-01 
3.475E+00   4.040E+00  2.969E-01 
3.515E+00   4.059E+00  2.950E-01 
3.556E+00   4.079E+00  2.932E-01 
3.597E+00   4.099E+00  2.914E-01 
3.639E+00   4.119E+00  2.895E-01 
3.681E+00   4.139E+00  2.877E-01 
3.724E+00   4.160E+00  2.859E-01 
3.767E+00   4.180E+00  2.841E-01 
3.810E+00   4.201E+00  2.823E-01 
3.855E+00   4.222E+00  2.805E-01 
3.899E+00   4.243E+00  2.787E-01 
3.945E+00   4.264E+00  2.769E-01 
3.990E+00   4.286E+00  2.751E-01 
4.037E+00   4.307E+00  2.733E-01 
4.083E+00   4.329E+00  2.716E-01 
4.131E+00   4.351E+00  2.698E-01 
4.179E+00   4.373E+00  2.681E-01 
4.227E+00   4.395E+00  2.663E-01 
4.276E+00   4.417E+00  2.646E-01 
4.326E+00   4.440E+00  2.628E-01 
4.376E+00   4.462E+00  2.611E-01 
4.427E+00   4.485E+00  2.594E-01 
4.478E+00   4.508E+00  2.577E-01 
4.530E+00   4.531E+00  2.560E-01 
4.583E+00   4.555E+00  2.543E-01 
4.636E+00   4.578E+00  2.526E-01 
4.690E+00   4.602E+00  2.509E-01 
4.744E+00   4.626E+00  2.492E-01 
4.799E+00   4.650E+00  2.475E-01 
4.855E+00   4.674E+00  2.459E-01 
4.911E+00   4.698E+00  2.442E-01 
4.968E+00   4.723E+00  2.426E-01 
5.026E+00   4.747E+00  2.409E-01 
5.084E+00   4.772E+00  2.393E-01 
5.143E+00   4.797E+00  2.377E-01 
5.202E+00   4.823E+00  2.360E-01 
5.263E+00   4.848E+00  2.344E-01 
5.324E+00   4.874E+00  2.328E-01 
5.386E+00   4.900E+00  2.312E-01 
5.448E+00   4.926E+00  2.296E-01 
5.511E+00   4.952E+00  2.280E-01 
5.575E+00   4.978E+00  2.265E-01 
5.640E+00   5.005E+00  2.249E-01 
5.705E+00   5.032E+00  2.233E-01 
5.771E+00   5.059E+00  2.218E-01 
5.838E+00   5.086E+00  2.202E-01 
5.906E+00   5.113E+00  2.187E-01 
5.975E+00   5.141E+00  2.172E-01 
6.044E+00   5.168E+00  2.156E-01 
6.114E+00   5.196E+00  2.141E-01 
6.185E+00   5.225E+00  2.126E-01 
6.257E+00   5.253E+00  2.111E-01 
6.329E+00   5.282E+00  2.096E-01 
6.403E+00   5.310E+00  2.081E-01 
6.477E+00   5.339E+00  2.066E-01 
6.552E+00   5.368E+00  2.052E-01 
6.628E+00   5.398E+00  2.037E-01 
6.705E+00   5.427E+00  2.022E-01 
6.783E+00   5.457E+00  2.008E-01 
6.861E+00   5.487E+00  1.993E-01 
6.941E+00   5.518E+00  1.979E-01 
7.021E+00   5.548E+00  1.965E-01 
7.103E+00   5.579E+00  1.950E-01 
7.185E+00   5.610E+00  1.936E-01 
7.269E+00   5.641E+00  1.922E-01 
7.353E+00   5.672E+00  1.908E-01 
7.438E+00   5.704E+00  1.894E-01 
7.524E+00   5.735E+00  1.880E-01 
7.612E+00   5.767E+00  1.867E-01 
7.700E+00   5.800E+00  1.853E-01 
7.789E+00   5.832E+00  1.839E-01 
7.880E+00   5.865E+00  1.826E-01 
7.971E+00   5.898E+00  1.812E-01 
8.064E+00   5.931E+00  1.799E-01 
8.157E+00   5.964E+00  1.786E-01 
8.252E+00   5.998E+00  1.772E-01 
8.347E+00   6.032E+00  1.759E-01 
8.444E+00   6.066E+00  1.746E-01 
8.542E+00   6.100E+00  1.733E-01 
8.641E+00   6.135E+00  1.720E-01 
8.741E+00   6.169E+00  1.707E-01 
8.843E+00   6.204E+00  1.694E-01 
8.945E+00   6.240E+00  1.682E-01 
9.049E+00   6.275E+00  1.669E-01 
9.154E+00   6.311E+00  1.656E-01 
9.260E+00   6.347E+00  1.644E-01 
9.368E+00   6.383E+00  1.631E-01 
9.476E+00   6.420E+00  1.619E-01 
9.586E+00   6.456E+00  1.607E-01 
9.698E+00   6.493E+00  1.595E-01 
9.810E+00   6.530E+00  1.582E-01 
9.924E+00   6.568E+00  1.570E-01 
1.004E+01   6.606E+00  1.558E-01 
1.016E+01   6.644E+00  1.546E-01 
1.027E+01   6.682E+00  1.535E-01 
1.039E+01   6.720E+00  1.523E-01 
1.051E+01   6.759E+00  1.511E-01 
1.063E+01   6.798E+00  1.499E-01 
1.076E+01   6.837E+00  1.488E-01 
1.088E+01   6.877E+00  1.476E-01 
1.101E+01   6.917E+00  1.465E-01 
1.114E+01   6.957E+00  1.454E-01 
1.127E+01   6.997E+00  1.442E-01 
1.140E+01   7.038E+00  1.431E-01 
1.153E+01   7.078E+00  1.420E-01 
1.166E+01   7.120E+00  1.409E-01 
1.180E+01   7.161E+00  1.398E-01 
1.193E+01   7.203E+00  1.387E-01 
1.207E+01   7.244E+00  1.376E-01 
1.221E+01   7.287E+00  1.365E-01 
1.235E+01   7.329E+00  1.355E-01 
1.250E+01   7.372E+00  1.344E-01 
1.264E+01   7.415E+00  1.333E-01 
1.279E+01   7.458E+00  1.323E-01 
1.294E+01   7.501E+00  1.312E-01 
1.309E+01   7.545E+00  1.302E-01 
1.324E+01   7.589E+00  1.292E-01 
1.339E+01   7.634E+00  1.281E-01 
1.355E+01   7.678E+00  1.271E-01 
1.371E+01   7.723E+00  1.261E-01 
1.387E+01   7.768E+00  1.251E-01 
1.403E+01   7.814E+00  1.241E-01 
1.419E+01   7.859E+00  1.231E-01 
1.435E+01   7.905E+00  1.221E-01 
1.452E+01   7.951E+00  1.212E-01 
1.469E+01   7.998E+00  1.202E-01 
1.486E+01   8.045E+00  1.192E-01 
1.503E+01   8.092E+00  1.183E-01 
1.521E+01   8.139E+00  1.173E-01 
1.538E+01   8.187E+00  1.164E-01 
1.556E+01   8.234E+00  1.154E-01 
1.574E+01   8.283E+00  1.145E-01 
1.592E+01   8.331E+00  1.136E-01 
1.611E+01   8.380E+00  1.126E-01 
1.629E+01   8.429E+00  1.117E-01 
1.648E+01   8.478E+00  1.108E-01 
1.667E+01   8.527E+00  1.099E-01 
1.687E+01   8.577E+00  1.090E-01 
1.706E+01   8.627E+00  1.081E-01 
1.726E+01   8.678E+00  1.073E-01 
1.746E+01   8.728E+00  1.064E-01 
1.766E+01   8.779E+00  1.055E-01 
1.787E+01   8.830E+00  1.046E-01 
1.808E+01   8.882E+00  1.038E-01 
1.829E+01   8.933E+00  1.029E-01 
1.850E+01   8.985E+00  1.021E-01 
1.871E+01   9.037E+00  1.012E-01 
1.893E+01   9.090E+00  1.004E-01 
1.915E+01   9.142E+00  9.958E-02 
1.937E+01   9.195E+00  9.876E-02 
1.960E+01   9.249E+00  9.794E-02 
1.982E+01   9.302E+00  9.713E-02 
2.005E+01   9.356E+00  9.632E-02 
2.029E+01   9.410E+00  9.552E-02 
2.052E+01   9.464E+00  8.695E-02 
2.076E+01   9.519E+00  8.624E-02 
2.100E+01   9.573E+00  8.554E-02 
2.124E+01   9.628E+00  8.484E-02 
2.149E+01   9.683E+00  8.415E-02 
2.174E+01   9.739E+00  8.347E-02 
2.199E+01   9.795E+00  8.278E-02 
2.225E+01   9.850E+00  8.211E-02 
2.250E+01   9.907E+00  8.143E-02 
2.277E+01   9.963E+00  8.077E-02 
2.303E+01   1.002E+01  8.010E-02 
2.330E+01   1.008E+01  7.944E-02 
2.357E+01   1.013E+01  7.879E-02 
2.384E+01   1.019E+01  7.814E-02 
2.412E+01   1.025E+01  7.749E-02 
2.440E+01   1.031E+01  7.685E-02 
2.468E+01   1.036E+01  7.622E-02 
2.497E+01   1.042E+01  7.559E-02 
2.526E+01   1.048E+01  7.496E-02 
2.555E+01   1.054E+01  7.434E-02 
2.584E+01   1.060E+01  7.372E-02 
2.614E+01   1.066E+01  7.310E-02 
2.645E+01   1.071E+01  7.249E-02 
2.675E+01   1.077E+01  7.189E-02 
2.707E+01   1.083E+01  7.129E-02 
2.738E+01   1.089E+01  7.069E-02 
2.770E+01   1.095E+01  7.010E-02 
2.802E+01   1.101E+01  6.951E-02 
2.834E+01   1.107E+01  6.893E-02 
2.867E+01   1.113E+01  6.835E-02 
2.900E+01   1.119E+01  6.777E-02 
2.934E+01   1.125E+01  6.720E-02 
2.968E+01   1.131E+01  6.664E-02 
3.003E+01   1.137E+01  6.607E-02 
3.037E+01   1.143E+01  6.551E-02 
3.073E+01   1.149E+01  6.496E-02 
3.108E+01   1.155E+01  6.441E-02 
3.144E+01   1.162E+01  6.386E-02 
3.181E+01   1.168E+01  6.332E-02 
3.218E+01   1.174E+01  6.278E-02 
3.255E+01   1.180E+01  6.225E-02 
3.293E+01   1.186E+01  6.172E-02 
3.331E+01   1.192E+01  6.119E-02 
3.370E+01   1.198E+01  6.067E-02 
3.409E+01   1.204E+01  6.015E-02 
3.448E+01   1.210E+01  5.964E-02 
3.488E+01   1.217E+01  5.913E-02 
3.529E+01   1.223E+01  5.862E-02 
3.570E+01   1.229E+01  5.812E-02 
3.611E+01   1.235E+01  5.762E-02 
3.653E+01   1.241E+01  5.712E-02 
3.695E+01   1.247E+01  5.663E-02 
3.738E+01   1.253E+01  5.615E-02 
3.781E+01   1.259E+01  5.566E-02 
3.825E+01   1.265E+01  5.518E-02 
3.870E+01   1.271E+01  5.470E-02 
3.915E+01   1.277E+01  5.423E-02 
3.960E+01   1.283E+01  5.376E-02 
4.006E+01   1.289E+01  5.330E-02 
4.052E+01   1.295E+01  5.284E-02 
4.099E+01   1.301E+01  5.238E-02 
4.147E+01   1.307E+01  5.192E-02 
4.195E+01   1.313E+01  5.147E-02 
4.244E+01   1.319E+01  5.102E-02 
4.293E+01   1.325E+01  5.058E-02 
4.343E+01   1.331E+01  5.014E-02 
4.393E+01   1.337E+01  4.970E-02 
4.444E+01   1.343E+01  4.927E-02 
4.496E+01   1.348E+01  4.884E-02 
4.548E+01   1.354E+01  4.841E-02 
4.600E+01   1.360E+01  4.799E-02 
4.654E+01   1.366E+01  4.757E-02 
4.708E+01   1.371E+01  4.715E-02 
4.762E+01   1.377E+01  4.674E-02 
4.818E+01   1.383E+01  4.633E-02 
4.873E+01   1.388E+01  4.592E-02 
4.930E+01   1.394E+01  4.551E-02 
4.987E+01   1.399E+01  4.511E-02 
5.045E+01   1.404E+01  4.472E-02 
5.104E+01   1.410E+01  4.432E-02 
5.163E+01   1.415E+01  4.393E-02 
5.223E+01   1.420E+01  4.354E-02 
5.283E+01   1.426E+01  4.316E-02 
5.344E+01   1.431E+01  4.278E-02 
5.406E+01   1.436E+01  4.240E-02 
5.469E+01   1.441E+01  4.202E-02 
5.533E+01   1.446E+01  4.165E-02 
5.597E+01   1.451E+01  4.128E-02 
5.662E+01   1.456E+01  4.091E-02 
5.727E+01   1.460E+01  4.055E-02 
5.794E+01   1.465E+01  4.019E-02 
5.861E+01   1.470E+01  3.983E-02 
5.929E+01   1.474E+01  3.948E-02 
5.998E+01   1.479E+01  3.913E-02 
6.067E+01   1.483E+01  3.878E-02 
6.138E+01   1.488E+01  3.843E-02 
6.209E+01   1.492E+01  3.809E-02 
6.281E+01   1.496E+01  3.775E-02 
6.354E+01   1.500E+01  3.741E-02 
6.427E+01   1.504E+01  3.707E-02 
6.502E+01   1.508E+01  3.674E-02 
6.577E+01   1.512E+01  3.641E-02 
6.654E+01   1.516E+01  3.609E-02 
6.731E+01   1.520E+01  3.576E-02 
6.809E+01   1.523E+01  3.544E-02 
6.888E+01   1.527E+01  3.512E-02 
6.968E+01   1.530E+01  3.481E-02 
7.049E+01   1.533E+01  3.449E-02 
7.130E+01   1.537E+01  3.418E-02 
7.213E+01   1.540E+01  3.387E-02 
7.297E+01   1.543E+01  3.357E-02 
7.381E+01   1.546E+01  3.327E-02 
7.467E+01   1.548E+01  3.297E-02 
7.554E+01   1.551E+01  3.267E-02 
7.641E+01   1.553E+01  3.237E-02 
7.730E+01   1.556E+01  3.208E-02 
7.820E+01   1.558E+01  3.179E-02 
7.910E+01   1.560E+01  3.150E-02 
8.002E+01   1.562E+01  3.122E-02 
8.095E+01   1.564E+01  3.093E-02 
8.189E+01   1.566E+01  3.065E-02 
8.284E+01   1.568E+01  3.037E-02 
8.380E+01   1.570E+01  3.010E-02 
8.477E+01   1.571E+01  2.982E-02 
8.575E+01   1.572E+01  2.955E-02 
8.675E+01   1.574E+01  2.928E-02 
8.775E+01   1.575E+01  2.902E-02 
8.877E+01   1.576E+01  2.875E-02 
8.980E+01   1.576E+01  2.849E-02 
9.084E+01   1.577E+01  2.823E-02 
9.190E+01   1.578E+01  2.797E-02 
9.296E+01   1.578E+01  2.772E-02 
9.404E+01   1.578E+01  2.746E-02 
9.513E+01   1.579E+01  2.721E-02 
9.624E+01   1.579E+01  2.696E-02 
9.735E+01   1.578E+01  2.671E-02 
9.848E+01   1.578E+01  2.647E-02 
9.962E+01   1.578E+01  2.623E-02 
1.008E+02   1.577E+01  2.599E-02 
1.019E+02   1.577E+01  2.575E-02 
1.031E+02   1.576E+01  2.551E-02 
1.043E+02   1.575E+01  2.528E-02 
1.055E+02   1.574E+01  2.504E-02 
1.068E+02   1.573E+01  2.481E-02 
1.080E+02   1.571E+01  2.458E-02 
1.093E+02   1.570E+01  2.436E-02 
1.105E+02   1.568E+01  2.413E-02 
1.118E+02   1.567E+01  2.391E-02 
1.131E+02   1.565E+01  2.369E-02 
1.144E+02   1.563E+01  2.347E-02 
1.157E+02   1.561E+01  2.325E-02 
1.171E+02   1.558E+01  2.304E-02 
1.184E+02   1.556E+01  2.283E-02 
1.198E+02   1.553E+01  2.262E-02 
1.212E+02   1.551E+01  2.241E-02 
1.226E+02   1.548E+01  2.220E-02 
1.240E+02   1.545E+01  2.199E-02 
1.255E+02   1.542E+01  2.179E-02 
1.269E+02   1.539E+01  2.159E-02 
1.284E+02   1.535E+01  2.139E-02 
1.299E+02   1.532E+01  2.119E-02 
1.314E+02   1.528E+01  2.099E-02 
1.329E+02   1.525E+01  2.080E-02 
1.345E+02   1.521E+01  2.060E-02 
1.360E+02   1.517E+01  2.041E-02 
1.376E+02   1.513E+01  2.022E-02 
1.392E+02   1.509E+01  2.003E-02 
1.408E+02   1.505E+01  1.984E-02 
1.424E+02   1.500E+01  1.966E-02 
1.441E+02   1.496E+01  1.948E-02 
1.458E+02   1.491E+01  1.929E-02 
1.475E+02   1.487E+01  1.911E-02 
1.492E+02   1.482E+01  1.894E-02 
1.509E+02   1.477E+01  1.876E-02 
1.526E+02   1.472E+01  1.858E-02 
1.544E+02   1.467E+01  1.841E-02 
1.562E+02   1.462E+01  1.824E-02 
1.580E+02   1.457E+01  1.807E-02 
1.598E+02   1.451E+01  1.790E-02 
1.617E+02   1.446E+01  1.773E-02 
1.636E+02   1.440E+01  1.756E-02 
1.655E+02   1.435E+01  1.740E-02 
1.674E+02   1.429E+01  1.723E-02 
1.693E+02   1.423E+01  1.707E-02 
1.713E+02   1.418E+01  1.691E-02 
1.733E+02   1.412E+01  1.675E-02 
1.753E+02   1.406E+01  1.660E-02 
1.773E+02   1.400E+01  1.644E-02 
1.794E+02   1.394E+01  1.628E-02 
1.815E+02   1.388E+01  1.613E-02 
1.836E+02   1.381E+01  1.598E-02 
1.857E+02   1.375E+01  1.583E-02 
1.879E+02   1.369E+01  1.568E-02 
1.900E+02   1.362E+01  1.553E-02 
1.922E+02   1.356E+01  1.538E-02 
1.945E+02   1.350E+01  1.524E-02 
1.967E+02   1.343E+01  1.510E-02 
1.990E+02   1.336E+01  1.495E-02 
2.013E+02   1.330E+01  1.481E-02 
2.036E+02   1.323E+01  1.467E-02 
2.060E+02   1.317E+01  1.453E-02 
2.084E+02   1.310E+01  1.439E-02 
2.108E+02   1.303E+01  1.426E-02 
2.133E+02   1.296E+01  1.412E-02 
2.157E+02   1.290E+01  1.399E-02 
2.182E+02   1.283E+01  1.386E-02 
2.208E+02   1.276E+01  1.372E-02 
2.233E+02   1.269E+01  1.359E-02 
2.259E+02   1.262E+01  1.347E-02 
2.285E+02   1.255E+01  1.334E-02 
2.312E+02   1.248E+01  1.321E-02 
2.339E+02   1.241E+01  1.309E-02 
2.366E+02   1.234E+01  1.296E-02 
2.393E+02   1.228E+01  1.284E-02 
2.421E+02   1.221E+01  1.272E-02 
2.449E+02   1.214E+01  1.259E-02 
2.478E+02   1.207E+01  1.247E-02 
2.506E+02   1.200E+01  1.236E-02 
2.535E+02   1.193E+01  1.224E-02 
2.565E+02   1.186E+01  1.212E-02 
2.595E+02   1.179E+01  1.200E-02 
2.625E+02   1.172E+01  1.189E-02 
2.655E+02   1.165E+01  1.178E-02 
2.686E+02   1.158E+01  1.166E-02 
2.717E+02   1.151E+01  1.155E-02 
2.749E+02   1.144E+01  1.144E-02 
2.780E+02   1.137E+01  1.133E-02 
2.813E+02   1.130E+01  1.122E-02 
2.845E+02   1.123E+01  1.112E-02 
2.878E+02   1.116E+01  1.101E-02 
2.912E+02   1.109E+01  1.091E-02 
2.945E+02   1.103E+01  1.080E-02 
2.980E+02   1.096E+01  1.070E-02 
3.014E+02   1.089E+01  1.059E-02 
3.049E+02   1.082E+01  1.049E-02 
3.085E+02   1.075E+01  1.039E-02 
3.120E+02   1.068E+01  1.029E-02 
3.156E+02   1.062E+01  1.019E-02 
3.193E+02   1.055E+01  1.010E-02 
3.230E+02   1.048E+01  9.998E-03 
3.268E+02   1.042E+01  9.902E-03 
3.306E+02   1.035E+01  9.807E-03 
3.344E+02   1.028E+01  9.713E-03 
3.383E+02   1.022E+01  9.619E-03 
3.422E+02   1.015E+01  9.527E-03 
3.462E+02   1.008E+01  9.435E-03 
3.502E+02   1.002E+01  9.344E-03 
3.542E+02   9.953E+00  9.254E-03 
3.583E+02   9.889E+00  9.165E-03 
3.625E+02   9.824E+00  9.076E-03 
3.667E+02   9.760E+00  8.989E-03 
3.710E+02   9.695E+00  8.902E-03 
3.753E+02   9.632E+00  8.816E-03 
3.796E+02   9.568E+00  8.731E-03 
3.840E+02   9.505E+00  8.646E-03 
3.885E+02   9.442E+00  8.563E-03 
3.930E+02   9.379E+00  8.480E-03 
3.975E+02   9.317E+00  8.398E-03 
4.021E+02   9.255E+00  8.317E-03 
4.068E+02   9.193E+00  8.236E-03 
4.115E+02   9.132E+00  8.157E-03 
4.163E+02   9.071E+00  8.078E-03 
4.211E+02   9.010E+00  7.999E-03 
4.260E+02   8.950E+00  7.922E-03 
4.310E+02   8.889E+00  7.845E-03 
4.360E+02   8.830E+00  7.769E-03 
4.410E+02   8.770E+00  7.694E-03 
4.461E+02   8.711E+00  7.619E-03 
4.513E+02   8.652E+00  7.545E-03 
4.565E+02   8.593E+00  7.472E-03 
4.618E+02   8.535E+00  7.399E-03 
4.672E+02   8.477E+00  7.327E-03 
4.726E+02   8.420E+00  7.256E-03 
4.781E+02   8.362E+00  7.185E-03 
4.836E+02   8.305E+00  7.116E-03 
4.892E+02   8.249E+00  7.046E-03 
4.949E+02   8.192E+00  6.978E-03 
5.007E+02   8.136E+00  6.910E-03 
5.065E+02   8.081E+00  6.843E-03 
5.123E+02   8.025E+00  6.776E-03 
5.183E+02   7.970E+00  6.710E-03 
5.243E+02   7.915E+00  6.644E-03 
5.304E+02   7.861E+00  6.580E-03 
5.365E+02   7.807E+00  6.515E-03 
5.428E+02   7.753E+00  6.452E-03 
5.490E+02   7.700E+00  6.389E-03 
5.554E+02   7.647E+00  6.327E-03 
5.619E+02   7.594E+00  6.265E-03 
5.684E+02   7.542E+00  6.204E-03 
5.750E+02   7.489E+00  6.143E-03 
5.816E+02   7.438E+00  6.083E-03 
5.884E+02   7.386E+00  6.023E-03 
5.952E+02   7.335E+00  5.965E-03 
6.021E+02   7.284E+00  5.906E-03 
6.091E+02   7.234E+00  5.848E-03 
6.162E+02   7.183E+00  5.791E-03 
6.233E+02   7.134E+00  5.734E-03 
6.305E+02   7.084E+00  5.678E-03 
6.378E+02   7.035E+00  5.623E-03 
6.452E+02   6.986E+00  5.568E-03 
6.527E+02   6.937E+00  5.513E-03 
6.603E+02   6.889E+00  5.459E-03 
6.680E+02   6.841E+00  5.405E-03 
6.757E+02   6.794E+00  5.352E-03 
6.835E+02   6.747E+00  5.300E-03 
6.915E+02   6.700E+00  5.248E-03 
6.995E+02   6.653E+00  5.196E-03 
7.076E+02   6.607E+00  5.145E-03 
7.158E+02   6.561E+00  5.095E-03 
7.241E+02   6.515E+00  5.045E-03 
7.325E+02   6.470E+00  4.995E-03 
7.410E+02   6.425E+00  4.946E-03 
7.496E+02   6.381E+00  4.897E-03 
7.583E+02   6.336E+00  4.849E-03 
7.671E+02   6.293E+00  4.801E-03 
7.760E+02   6.249E+00  4.754E-03 
7.850E+02   6.206E+00  4.707E-03 
7.941E+02   6.163E+00  4.661E-03 
8.033E+02   6.120E+00  4.615E-03 
8.126E+02   6.078E+00  4.570E-03 
8.221E+02   6.036E+00  4.525E-03 
8.316E+02   5.995E+00  4.480E-03 
