Ion = Helium      . Mass = 4.0026
Tgt = Xe (Solid). Density = 3.0589 g/cm3
Stopping Units =  eV/(1E15 atoms/cm2)
Energy(keV)  S(Elec)    S(Nuc)
1.000E+00   3.881E+00  2.183E+00 
1.013E+00   3.906E+00  2.189E+00 
1.026E+00   3.931E+00  2.194E+00 
1.039E+00   3.956E+00  2.199E+00 
1.053E+00   3.982E+00  2.204E+00 
1.067E+00   4.008E+00  2.209E+00 
1.081E+00   4.034E+00  2.214E+00 
1.095E+00   4.060E+00  2.219E+00 
1.109E+00   4.086E+00  2.224E+00 
1.123E+00   4.113E+00  2.229E+00 
1.138E+00   4.139E+00  2.234E+00 
1.153E+00   4.166E+00  2.238E+00 
1.168E+00   4.193E+00  2.243E+00 
1.183E+00   4.220E+00  2.248E+00 
1.198E+00   4.248E+00  2.253E+00 
1.214E+00   4.275E+00  2.257E+00 
1.229E+00   4.303E+00  2.262E+00 
1.245E+00   4.331E+00  2.267E+00 
1.262E+00   4.359E+00  2.271E+00 
1.278E+00   4.387E+00  2.276E+00 
1.295E+00   4.415E+00  2.281E+00 
1.311E+00   4.444E+00  2.285E+00 
1.329E+00   4.473E+00  2.290E+00 
1.346E+00   4.502E+00  2.294E+00 
1.363E+00   4.531E+00  2.298E+00 
1.381E+00   4.560E+00  2.303E+00 
1.399E+00   4.590E+00  2.307E+00 
1.417E+00   4.620E+00  2.311E+00 
1.436E+00   4.650E+00  2.316E+00 
1.454E+00   4.680E+00  2.320E+00 
1.473E+00   4.710E+00  2.324E+00 
1.492E+00   4.740E+00  2.328E+00 
1.512E+00   4.771E+00  2.332E+00 
1.531E+00   4.802E+00  2.336E+00 
1.551E+00   4.833E+00  2.340E+00 
1.571E+00   4.865E+00  2.344E+00 
1.592E+00   4.896E+00  2.348E+00 
1.612E+00   4.928E+00  2.352E+00 
1.633E+00   4.960E+00  2.356E+00 
1.655E+00   4.992E+00  2.360E+00 
1.676E+00   5.024E+00  2.364E+00 
1.698E+00   5.057E+00  2.367E+00 
1.720E+00   5.089E+00  2.371E+00 
1.742E+00   5.122E+00  2.375E+00 
1.765E+00   5.156E+00  2.378E+00 
1.788E+00   5.189E+00  2.382E+00 
1.811E+00   5.223E+00  2.385E+00 
1.835E+00   5.256E+00  2.389E+00 
1.859E+00   5.290E+00  2.392E+00 
1.883E+00   5.325E+00  2.395E+00 
1.907E+00   5.359E+00  2.399E+00 
1.932E+00   5.394E+00  2.402E+00 
1.957E+00   5.429E+00  2.405E+00 
1.983E+00   5.464E+00  2.408E+00 
2.008E+00   5.499E+00  2.412E+00 
2.034E+00   5.535E+00  2.415E+00 
2.061E+00   5.571E+00  2.418E+00 
2.088E+00   5.607E+00  2.421E+00 
2.115E+00   5.643E+00  2.424E+00 
2.142E+00   5.680E+00  2.427E+00 
2.170E+00   5.717E+00  2.429E+00 
2.198E+00   5.754E+00  2.432E+00 
2.227E+00   5.791E+00  2.435E+00 
2.256E+00   5.828E+00  2.438E+00 
2.285E+00   5.866E+00  2.440E+00 
2.315E+00   5.904E+00  2.443E+00 
2.345E+00   5.942E+00  2.445E+00 
2.375E+00   5.981E+00  2.448E+00 
2.406E+00   6.020E+00  2.450E+00 
2.438E+00   6.059E+00  2.453E+00 
2.469E+00   6.098E+00  2.455E+00 
2.501E+00   6.137E+00  2.457E+00 
2.534E+00   6.177E+00  2.459E+00 
2.567E+00   6.217E+00  2.462E+00 
2.600E+00   6.257E+00  2.464E+00 
2.634E+00   6.298E+00  2.466E+00 
2.668E+00   6.339E+00  2.468E+00 
2.703E+00   6.380E+00  2.470E+00 
2.738E+00   6.421E+00  2.472E+00 
2.773E+00   6.463E+00  2.473E+00 
2.810E+00   6.505E+00  2.475E+00 
2.846E+00   6.547E+00  2.477E+00 
2.883E+00   6.589E+00  2.479E+00 
2.921E+00   6.632E+00  2.480E+00 
2.958E+00   6.675E+00  2.482E+00 
2.997E+00   6.718E+00  2.483E+00 
3.036E+00   6.761E+00  2.485E+00 
3.075E+00   6.805E+00  2.486E+00 
3.115E+00   6.849E+00  2.487E+00 
3.156E+00   6.894E+00  2.488E+00 
3.197E+00   6.938E+00  2.490E+00 
3.238E+00   6.983E+00  2.491E+00 
3.280E+00   7.029E+00  2.492E+00 
3.323E+00   7.074E+00  2.493E+00 
3.366E+00   7.120E+00  2.494E+00 
3.410E+00   7.166E+00  2.495E+00 
3.454E+00   7.212E+00  2.495E+00 
3.499E+00   7.259E+00  2.496E+00 
3.545E+00   7.306E+00  2.497E+00 
3.591E+00   7.353E+00  2.497E+00 
3.637E+00   7.401E+00  2.498E+00 
3.685E+00   7.449E+00  2.498E+00 
3.733E+00   7.497E+00  2.499E+00 
3.781E+00   7.546E+00  2.499E+00 
3.830E+00   7.595E+00  2.499E+00 
3.880E+00   7.644E+00  2.500E+00 
3.930E+00   7.693E+00  2.500E+00 
3.982E+00   7.743E+00  2.500E+00 
4.033E+00   7.793E+00  2.500E+00 
4.086E+00   7.844E+00  2.500E+00 
4.139E+00   7.895E+00  2.500E+00 
4.193E+00   7.946E+00  2.500E+00 
4.247E+00   7.997E+00  2.499E+00 
4.302E+00   8.049E+00  2.499E+00 
4.358E+00   8.101E+00  2.499E+00 
4.415E+00   8.154E+00  2.498E+00 
4.472E+00   8.207E+00  2.498E+00 
4.530E+00   8.260E+00  2.497E+00 
4.589E+00   8.313E+00  2.497E+00 
4.649E+00   8.367E+00  2.496E+00 
4.709E+00   8.421E+00  2.495E+00 
4.770E+00   8.476E+00  2.494E+00 
4.832E+00   8.531E+00  2.493E+00 
4.895E+00   8.586E+00  2.492E+00 
4.959E+00   8.642E+00  2.491E+00 
5.023E+00   8.698E+00  2.490E+00 
5.089E+00   8.754E+00  2.489E+00 
5.155E+00   8.811E+00  2.488E+00 
5.222E+00   8.868E+00  2.487E+00 
5.290E+00   8.925E+00  2.485E+00 
5.358E+00   8.983E+00  2.484E+00 
5.428E+00   9.041E+00  2.482E+00 
5.499E+00   9.100E+00  2.481E+00 
5.570E+00   9.159E+00  2.479E+00 
5.642E+00   9.218E+00  2.477E+00 
5.716E+00   9.278E+00  2.475E+00 
5.790E+00   9.338E+00  2.473E+00 
5.865E+00   9.398E+00  2.471E+00 
5.942E+00   9.459E+00  2.469E+00 
6.019E+00   9.520E+00  2.467E+00 
6.097E+00   9.582E+00  2.465E+00 
6.176E+00   9.644E+00  2.463E+00 
6.256E+00   9.707E+00  2.461E+00 
6.338E+00   9.769E+00  2.458E+00 
6.420E+00   9.833E+00  2.456E+00 
6.504E+00   9.896E+00  2.453E+00 
6.588E+00   9.960E+00  2.451E+00 
6.674E+00   1.002E+01  2.448E+00 
6.760E+00   1.009E+01  2.445E+00 
6.848E+00   1.016E+01  2.442E+00 
6.937E+00   1.022E+01  2.440E+00 
7.027E+00   1.029E+01  2.437E+00 
7.119E+00   1.035E+01  2.434E+00 
7.211E+00   1.042E+01  2.431E+00 
7.305E+00   1.049E+01  2.427E+00 
7.400E+00   1.056E+01  2.424E+00 
7.496E+00   1.062E+01  2.421E+00 
7.594E+00   1.069E+01  2.418E+00 
7.692E+00   1.076E+01  2.414E+00 
7.792E+00   1.083E+01  2.411E+00 
7.894E+00   1.090E+01  2.407E+00 
7.996E+00   1.097E+01  2.403E+00 
8.100E+00   1.106E+01  2.400E+00 
8.205E+00   1.115E+01  2.396E+00 
8.312E+00   1.124E+01  2.392E+00 
8.420E+00   1.133E+01  2.388E+00 
8.529E+00   1.142E+01  2.384E+00 
8.640E+00   1.151E+01  2.380E+00 
8.753E+00   1.160E+01  2.376E+00 
8.866E+00   1.170E+01  2.372E+00 
8.982E+00   1.179E+01  2.368E+00 
9.098E+00   1.189E+01  2.363E+00 
9.217E+00   1.199E+01  2.359E+00 
9.336E+00   1.208E+01  2.354E+00 
9.458E+00   1.218E+01  2.350E+00 
9.581E+00   1.228E+01  2.345E+00 
9.705E+00   1.238E+01  2.341E+00 
9.831E+00   1.248E+01  2.336E+00 
9.959E+00   1.259E+01  2.331E+00 
1.009E+01   1.269E+01  2.326E+00 
1.022E+01   1.279E+01  2.321E+00 
1.035E+01   1.290E+01  2.316E+00 
1.049E+01   1.301E+01  2.311E+00 
1.062E+01   1.311E+01  2.306E+00 
1.076E+01   1.322E+01  2.301E+00 
1.090E+01   1.333E+01  2.296E+00 
1.104E+01   1.344E+01  2.290E+00 
1.119E+01   1.355E+01  2.285E+00 
1.133E+01   1.367E+01  2.280E+00 
1.148E+01   1.378E+01  2.274E+00 
1.163E+01   1.390E+01  2.269E+00 
1.178E+01   1.401E+01  2.263E+00 
1.193E+01   1.413E+01  2.257E+00 
1.209E+01   1.425E+01  2.252E+00 
1.224E+01   1.437E+01  2.246E+00 
1.240E+01   1.449E+01  2.240E+00 
1.256E+01   1.461E+01  2.234E+00 
1.273E+01   1.473E+01  2.228E+00 
1.289E+01   1.486E+01  2.222E+00 
1.306E+01   1.498E+01  2.216E+00 
1.323E+01   1.511E+01  2.210E+00 
1.340E+01   1.524E+01  2.204E+00 
1.358E+01   1.537E+01  2.197E+00 
1.375E+01   1.550E+01  2.191E+00 
1.393E+01   1.563E+01  2.185E+00 
1.411E+01   1.576E+01  2.178E+00 
1.430E+01   1.590E+01  2.172E+00 
1.448E+01   1.603E+01  2.165E+00 
1.467E+01   1.617E+01  2.159E+00 
1.486E+01   1.631E+01  2.152E+00 
1.505E+01   1.645E+01  2.146E+00 
1.525E+01   1.659E+01  2.139E+00 
1.545E+01   1.673E+01  2.132E+00 
1.565E+01   1.687E+01  2.125E+00 
1.585E+01   1.702E+01  2.118E+00 
1.606E+01   1.716E+01  2.112E+00 
1.627E+01   1.731E+01  2.105E+00 
1.648E+01   1.746E+01  2.098E+00 
1.669E+01   1.761E+01  2.091E+00 
1.691E+01   1.776E+01  2.083E+00 
1.713E+01   1.792E+01  2.076E+00 
1.735E+01   1.807E+01  2.069E+00 
1.758E+01   1.823E+01  2.062E+00 
1.781E+01   1.839E+01  2.055E+00 
1.804E+01   1.855E+01  2.047E+00 
1.827E+01   1.871E+01  2.040E+00 
1.851E+01   1.887E+01  2.033E+00 
1.875E+01   1.904E+01  2.025E+00 
1.899E+01   1.920E+01  2.018E+00 
1.924E+01   1.937E+01  2.010E+00 
1.949E+01   1.954E+01  2.003E+00 
1.974E+01   1.971E+01  1.995E+00 
2.000E+01   1.988E+01  1.987E+00 
2.026E+01   2.006E+01  1.980E+00 
2.052E+01   2.023E+01  1.972E+00 
2.079E+01   2.041E+01  1.964E+00 
2.106E+01   2.059E+01  1.956E+00 
2.133E+01   2.077E+01  1.949E+00 
2.161E+01   2.096E+01  1.941E+00 
2.189E+01   2.114E+01  1.933E+00 
2.218E+01   2.133E+01  1.925E+00 
2.247E+01   2.152E+01  1.917E+00 
2.276E+01   2.171E+01  1.909E+00 
2.305E+01   2.190E+01  1.901E+00 
2.335E+01   2.209E+01  1.893E+00 
2.366E+01   2.229E+01  1.885E+00 
2.396E+01   2.249E+01  1.877E+00 
2.428E+01   2.269E+01  1.869E+00 
2.459E+01   2.289E+01  1.861E+00 
2.491E+01   2.309E+01  1.853E+00 
2.523E+01   2.330E+01  1.845E+00 
2.556E+01   2.351E+01  1.836E+00 
2.589E+01   2.372E+01  1.828E+00 
2.623E+01   2.393E+01  1.820E+00 
2.657E+01   2.414E+01  1.812E+00 
2.692E+01   2.436E+01  1.803E+00 
2.727E+01   2.458E+01  1.795E+00 
2.762E+01   2.480E+01  1.787E+00 
2.798E+01   2.502E+01  1.778E+00 
2.834E+01   2.524E+01  1.770E+00 
2.871E+01   2.547E+01  1.762E+00 
2.909E+01   2.570E+01  1.753E+00 
2.946E+01   2.593E+01  1.745E+00 
2.985E+01   2.616E+01  1.737E+00 
3.023E+01   2.640E+01  1.728E+00 
3.063E+01   2.664E+01  1.720E+00 
3.103E+01   2.688E+01  1.711E+00 
3.143E+01   2.712E+01  1.703E+00 
3.184E+01   2.736E+01  1.694E+00 
3.225E+01   2.761E+01  1.686E+00 
3.267E+01   2.786E+01  1.677E+00 
3.309E+01   2.811E+01  1.669E+00 
3.352E+01   2.837E+01  1.660E+00 
3.396E+01   2.863E+01  1.652E+00 
3.440E+01   2.889E+01  1.643E+00 
3.485E+01   2.915E+01  1.635E+00 
3.530E+01   2.941E+01  1.626E+00 
3.576E+01   2.968E+01  1.618E+00 
3.623E+01   2.995E+01  1.609E+00 
3.670E+01   3.022E+01  1.601E+00 
3.717E+01   3.050E+01  1.592E+00 
3.766E+01   3.077E+01  1.584E+00 
3.815E+01   3.106E+01  1.575E+00 
3.864E+01   3.134E+01  1.566E+00 
3.914E+01   3.162E+01  1.558E+00 
3.965E+01   3.191E+01  1.549E+00 
4.017E+01   3.221E+01  1.541E+00 
4.069E+01   3.250E+01  1.532E+00 
4.122E+01   3.280E+01  1.524E+00 
4.175E+01   3.310E+01  1.515E+00 
4.230E+01   3.340E+01  1.507E+00 
4.285E+01   3.371E+01  1.498E+00 
4.340E+01   3.402E+01  1.490E+00 
4.397E+01   3.433E+01  1.481E+00 
4.454E+01   3.464E+01  1.473E+00 
4.512E+01   3.496E+01  1.464E+00 
4.570E+01   3.528E+01  1.456E+00 
4.630E+01   3.561E+01  1.447E+00 
4.690E+01   3.593E+01  1.439E+00 
4.751E+01   3.626E+01  1.430E+00 
4.813E+01   3.660E+01  1.422E+00 
4.875E+01   3.693E+01  1.413E+00 
4.939E+01   3.727E+01  1.405E+00 
5.003E+01   3.762E+01  1.396E+00 
5.068E+01   3.796E+01  1.388E+00 
5.134E+01   3.831E+01  1.380E+00 
5.200E+01   3.867E+01  1.371E+00 
5.268E+01   3.902E+01  1.363E+00 
5.336E+01   3.938E+01  1.354E+00 
5.406E+01   3.975E+01  1.346E+00 
5.476E+01   4.011E+01  1.338E+00 
5.547E+01   4.048E+01  1.329E+00 
5.619E+01   4.086E+01  1.321E+00 
5.692E+01   4.124E+01  1.313E+00 
5.766E+01   4.162E+01  1.305E+00 
5.841E+01   4.200E+01  1.296E+00 
5.917E+01   4.239E+01  1.288E+00 
5.994E+01   4.278E+01  1.280E+00 
6.072E+01   4.318E+01  1.272E+00 
6.151E+01   4.358E+01  1.263E+00 
6.231E+01   4.398E+01  1.255E+00 
6.312E+01   4.439E+01  1.247E+00 
6.394E+01   4.480E+01  1.239E+00 
6.477E+01   4.521E+01  1.231E+00 
6.561E+01   4.563E+01  1.223E+00 
6.646E+01   4.606E+01  1.215E+00 
6.733E+01   4.648E+01  1.207E+00 
6.820E+01   4.691E+01  1.199E+00 
6.909E+01   4.735E+01  1.191E+00 
6.999E+01   4.779E+01  1.183E+00 
7.090E+01   4.823E+01  1.175E+00 
7.182E+01   4.868E+01  1.167E+00 
7.275E+01   4.913E+01  1.159E+00 
7.370E+01   4.958E+01  1.151E+00 
7.465E+01   5.004E+01  1.143E+00 
7.562E+01   5.050E+01  1.136E+00 
7.661E+01   5.097E+01  1.128E+00 
7.760E+01   5.144E+01  1.120E+00 
7.861E+01   5.192E+01  1.112E+00 
7.963E+01   5.240E+01  1.105E+00 
8.067E+01   5.289E+01  1.097E+00 
8.172E+01   5.338E+01  1.089E+00 
8.278E+01   5.387E+01  1.082E+00 
8.385E+01   5.437E+01  1.074E+00 
8.494E+01   5.487E+01  1.067E+00 
8.605E+01   5.538E+01  1.059E+00 
8.717E+01   5.589E+01  1.052E+00 
8.830E+01   5.641E+01  1.044E+00 
8.945E+01   5.693E+01  1.037E+00 
9.061E+01   5.745E+01  1.029E+00 
9.179E+01   5.798E+01  1.022E+00 
9.298E+01   5.852E+01  1.014E+00 
9.419E+01   5.906E+01  1.007E+00 
9.541E+01   5.960E+01  9.998E-01 
9.665E+01   6.015E+01  9.926E-01 
9.791E+01   6.070E+01  9.853E-01 
9.918E+01   6.126E+01  9.781E-01 
1.005E+02   6.182E+01  9.710E-01 
1.018E+02   6.239E+01  9.638E-01 
1.031E+02   6.297E+01  9.567E-01 
1.044E+02   6.354E+01  9.496E-01 
1.058E+02   6.413E+01  9.426E-01 
1.072E+02   6.471E+01  9.356E-01 
1.086E+02   6.531E+01  9.286E-01 
1.100E+02   6.590E+01  9.216E-01 
1.114E+02   6.650E+01  9.147E-01 
1.129E+02   6.711E+01  9.078E-01 
1.143E+02   6.772E+01  9.010E-01 
1.158E+02   6.834E+01  8.942E-01 
1.173E+02   6.896E+01  8.874E-01 
1.188E+02   6.959E+01  8.806E-01 
1.204E+02   7.022E+01  8.739E-01 
1.219E+02   7.086E+01  8.672E-01 
1.235E+02   7.150E+01  8.606E-01 
1.251E+02   7.214E+01  8.540E-01 
1.268E+02   7.279E+01  8.474E-01 
1.284E+02   7.345E+01  8.408E-01 
1.301E+02   7.411E+01  8.343E-01 
1.318E+02   7.478E+01  8.278E-01 
1.335E+02   7.545E+01  8.214E-01 
1.352E+02   7.613E+01  8.150E-01 
1.370E+02   7.681E+01  8.086E-01 
1.388E+02   7.749E+01  8.022E-01 
1.406E+02   7.818E+01  7.959E-01 
1.424E+02   7.888E+01  7.897E-01 
1.442E+02   7.958E+01  7.834E-01 
1.461E+02   8.028E+01  7.772E-01 
1.480E+02   8.099E+01  7.710E-01 
1.499E+02   8.170E+01  7.649E-01 
1.519E+02   8.242E+01  7.588E-01 
1.539E+02   8.315E+01  7.527E-01 
1.559E+02   8.387E+01  7.467E-01 
1.579E+02   8.461E+01  7.407E-01 
1.599E+02   8.534E+01  7.347E-01 
1.620E+02   8.608E+01  7.288E-01 
1.641E+02   8.683E+01  7.229E-01 
1.662E+02   8.758E+01  7.170E-01 
1.684E+02   8.833E+01  7.112E-01 
1.706E+02   8.909E+01  7.054E-01 
1.728E+02   8.985E+01  6.997E-01 
1.751E+02   9.062E+01  6.940E-01 
1.773E+02   9.139E+01  6.883E-01 
1.796E+02   9.216E+01  6.826E-01 
1.820E+02   9.294E+01  6.770E-01 
1.843E+02   9.372E+01  6.714E-01 
1.867E+02   9.450E+01  6.659E-01 
1.892E+02   9.529E+01  6.604E-01 
1.916E+02   9.608E+01  6.549E-01 
1.941E+02   9.687E+01  6.494E-01 
1.966E+02   9.767E+01  6.440E-01 
1.992E+02   9.847E+01  6.386E-01 
2.018E+02   9.927E+01  6.333E-01 
2.044E+02   1.001E+02  6.280E-01 
2.071E+02   1.009E+02  6.227E-01 
2.097E+02   1.017E+02  6.175E-01 
2.125E+02   1.025E+02  6.123E-01 
2.152E+02   1.033E+02  6.071E-01 
2.180E+02   1.041E+02  6.020E-01 
2.209E+02   1.049E+02  5.969E-01 
2.237E+02   1.058E+02  5.918E-01 
2.266E+02   1.066E+02  5.868E-01 
2.296E+02   1.074E+02  5.818E-01 
2.326E+02   1.082E+02  5.768E-01 
2.356E+02   1.090E+02  5.719E-01 
2.387E+02   1.099E+02  5.670E-01 
2.418E+02   1.107E+02  5.621E-01 
2.449E+02   1.115E+02  5.573E-01 
2.481E+02   1.123E+02  5.525E-01 
2.513E+02   1.131E+02  5.477E-01 
2.546E+02   1.140E+02  5.429E-01 
2.579E+02   1.148E+02  5.382E-01 
2.612E+02   1.156E+02  5.336E-01 
2.646E+02   1.164E+02  5.289E-01 
2.681E+02   1.172E+02  5.243E-01 
2.716E+02   1.180E+02  5.198E-01 
2.751E+02   1.188E+02  5.152E-01 
2.787E+02   1.196E+02  5.107E-01 
2.823E+02   1.204E+02  5.062E-01 
2.859E+02   1.212E+02  5.018E-01 
2.897E+02   1.220E+02  4.974E-01 
2.934E+02   1.228E+02  4.930E-01 
2.972E+02   1.236E+02  4.887E-01 
3.011E+02   1.244E+02  4.843E-01 
3.050E+02   1.251E+02  4.800E-01 
3.090E+02   1.259E+02  4.758E-01 
3.130E+02   1.267E+02  4.716E-01 
3.171E+02   1.274E+02  4.674E-01 
3.212E+02   1.282E+02  4.632E-01 
3.254E+02   1.289E+02  4.591E-01 
3.296E+02   1.296E+02  4.550E-01 
3.339E+02   1.304E+02  4.509E-01 
3.382E+02   1.311E+02  4.469E-01 
3.426E+02   1.318E+02  4.429E-01 
3.471E+02   1.325E+02  4.389E-01 
3.516E+02   1.332E+02  4.349E-01 
3.561E+02   1.338E+02  4.310E-01 
3.608E+02   1.345E+02  4.271E-01 
3.655E+02   1.352E+02  4.233E-01 
3.702E+02   1.358E+02  4.194E-01 
3.750E+02   1.364E+02  4.156E-01 
3.799E+02   1.370E+02  4.149E-01 
3.848E+02   1.376E+02  4.111E-01 
3.898E+02   1.382E+02  4.074E-01 
3.949E+02   1.388E+02  4.037E-01 
4.000E+02   1.394E+02  4.000E-01 
4.052E+02   1.399E+02  3.963E-01 
4.105E+02   1.405E+02  3.927E-01 
4.158E+02   1.410E+02  3.891E-01 
4.212E+02   1.415E+02  3.855E-01 
4.267E+02   1.420E+02  3.820E-01 
4.323E+02   1.425E+02  3.785E-01 
4.379E+02   1.429E+02  3.750E-01 
4.436E+02   1.434E+02  3.715E-01 
4.493E+02   1.438E+02  3.681E-01 
4.552E+02   1.442E+02  3.647E-01 
4.611E+02   1.446E+02  3.613E-01 
4.671E+02   1.450E+02  3.579E-01 
4.731E+02   1.453E+02  3.546E-01 
4.793E+02   1.457E+02  3.513E-01 
4.855E+02   1.460E+02  3.480E-01 
4.918E+02   1.463E+02  3.448E-01 
4.982E+02   1.466E+02  3.415E-01 
5.047E+02   1.468E+02  3.383E-01 
5.113E+02   1.471E+02  3.352E-01 
5.179E+02   1.473E+02  3.320E-01 
5.246E+02   1.475E+02  3.289E-01 
5.315E+02   1.477E+02  3.258E-01 
5.384E+02   1.479E+02  3.227E-01 
5.454E+02   1.480E+02  3.197E-01 
5.524E+02   1.482E+02  3.167E-01 
5.596E+02   1.483E+02  3.137E-01 
5.669E+02   1.484E+02  3.107E-01 
5.743E+02   1.484E+02  3.077E-01 
5.817E+02   1.485E+02  3.048E-01 
5.893E+02   1.485E+02  3.019E-01 
5.969E+02   1.486E+02  2.990E-01 
6.047E+02   1.486E+02  2.962E-01 
6.126E+02   1.485E+02  2.934E-01 
6.205E+02   1.485E+02  2.906E-01 
6.286E+02   1.485E+02  2.878E-01 
6.368E+02   1.484E+02  2.850E-01 
6.450E+02   1.483E+02  2.823E-01 
6.534E+02   1.482E+02  2.796E-01 
6.619E+02   1.481E+02  2.769E-01 
6.705E+02   1.479E+02  2.743E-01 
6.792E+02   1.478E+02  2.716E-01 
6.881E+02   1.476E+02  2.690E-01 
6.970E+02   1.474E+02  2.664E-01 
7.061E+02   1.472E+02  2.638E-01 
7.152E+02   1.470E+02  2.613E-01 
7.245E+02   1.468E+02  2.588E-01 
7.339E+02   1.465E+02  2.562E-01 
7.435E+02   1.463E+02  2.538E-01 
7.531E+02   1.460E+02  2.513E-01 
7.629E+02   1.457E+02  2.489E-01 
7.728E+02   1.454E+02  2.464E-01 
7.829E+02   1.451E+02  2.440E-01 
7.931E+02   1.448E+02  2.417E-01 
8.034E+02   1.445E+02  2.393E-01 
8.138E+02   1.441E+02  2.370E-01 
8.244E+02   1.438E+02  2.347E-01 
8.351E+02   1.434E+02  2.324E-01 
8.460E+02   1.430E+02  2.301E-01 
8.570E+02   1.426E+02  2.278E-01 
8.681E+02   1.423E+02  2.256E-01 
8.794E+02   1.419E+02  2.234E-01 
8.908E+02   1.414E+02  2.212E-01 
9.024E+02   1.410E+02  2.190E-01 
9.141E+02   1.406E+02  2.168E-01 
9.260E+02   1.402E+02  2.147E-01 
9.380E+02   1.397E+02  2.126E-01 
9.502E+02   1.393E+02  2.105E-01 
9.626E+02   1.388E+02  2.084E-01 
9.751E+02   1.384E+02  2.064E-01 
9.877E+02   1.379E+02  2.043E-01 
1.001E+03   1.374E+02  2.023E-01 
1.014E+03   1.370E+02  2.003E-01 
1.027E+03   1.365E+02  1.983E-01 
1.040E+03   1.360E+02  1.963E-01 
1.054E+03   1.355E+02  1.944E-01 
1.067E+03   1.350E+02  1.924E-01 
1.081E+03   1.345E+02  1.905E-01 
1.095E+03   1.340E+02  1.886E-01 
1.109E+03   1.335E+02  1.867E-01 
1.124E+03   1.330E+02  1.849E-01 
1.138E+03   1.325E+02  1.830E-01 
1.153E+03   1.320E+02  1.812E-01 
1.168E+03   1.315E+02  1.794E-01 
1.183E+03   1.310E+02  1.776E-01 
1.199E+03   1.304E+02  1.758E-01 
1.214E+03   1.299E+02  1.740E-01 
1.230E+03   1.294E+02  1.723E-01 
1.246E+03   1.289E+02  1.706E-01 
1.262E+03   1.283E+02  1.688E-01 
1.279E+03   1.278E+02  1.671E-01 
1.295E+03   1.273E+02  1.655E-01 
1.312E+03   1.268E+02  1.638E-01 
1.329E+03   1.262E+02  1.621E-01 
1.347E+03   1.257E+02  1.605E-01 
1.364E+03   1.252E+02  1.589E-01 
1.382E+03   1.246E+02  1.573E-01 
1.400E+03   1.241E+02  1.557E-01 
1.418E+03   1.236E+02  1.541E-01 
1.436E+03   1.230E+02  1.526E-01 
1.455E+03   1.225E+02  1.510E-01 
1.474E+03   1.220E+02  1.495E-01 
1.493E+03   1.214E+02  1.480E-01 
1.513E+03   1.209E+02  1.465E-01 
1.532E+03   1.203E+02  1.450E-01 
1.552E+03   1.198E+02  1.435E-01 
1.572E+03   1.193E+02  1.420E-01 
1.593E+03   1.187E+02  1.406E-01 
1.613E+03   1.182E+02  1.391E-01 
1.634E+03   1.176E+02  1.377E-01 
1.656E+03   1.171E+02  1.363E-01 
1.677E+03   1.166E+02  1.349E-01 
1.699E+03   1.160E+02  1.335E-01 
1.721E+03   1.155E+02  1.322E-01 
1.743E+03   1.149E+02  1.308E-01 
1.766E+03   1.144E+02  1.295E-01 
1.789E+03   1.139E+02  1.282E-01 
1.812E+03   1.133E+02  1.268E-01 
1.836E+03   1.128E+02  1.255E-01 
1.860E+03   1.122E+02  1.243E-01 
