Ion = Hydrogen    . Mass = 1.0079
Tgt =  C (Solid). Density = 2.253 g/cm3
Stopping Units =  eV/(1E15 atoms/cm2)
Energy(keV)  S(Elec)    S(Nuc)
1.000E+00   2.775E+00  4.664E-01 
1.012E+00   2.791E+00  4.644E-01 
1.023E+00   2.807E+00  4.624E-01 
1.035E+00   2.823E+00  4.603E-01 
1.047E+00   2.839E+00  4.583E-01 
1.059E+00   2.856E+00  4.562E-01 
1.072E+00   2.872E+00  4.542E-01 
1.084E+00   2.889E+00  4.521E-01 
1.097E+00   2.906E+00  4.501E-01 
1.109E+00   2.922E+00  4.480E-01 
1.122E+00   2.939E+00  4.459E-01 
1.135E+00   2.956E+00  4.439E-01 
1.148E+00   2.973E+00  4.418E-01 
1.162E+00   2.991E+00  4.398E-01 
1.175E+00   3.008E+00  4.377E-01 
1.189E+00   3.025E+00  4.356E-01 
1.203E+00   3.043E+00  4.336E-01 
1.217E+00   3.060E+00  4.315E-01 
1.231E+00   3.078E+00  4.294E-01 
1.245E+00   3.096E+00  4.274E-01 
1.259E+00   3.114E+00  4.253E-01 
1.274E+00   3.132E+00  4.232E-01 
1.289E+00   3.150E+00  4.211E-01 
1.304E+00   3.168E+00  4.191E-01 
1.319E+00   3.186E+00  4.170E-01 
1.334E+00   3.205E+00  4.149E-01 
1.350E+00   3.223E+00  4.129E-01 
1.365E+00   3.242E+00  4.108E-01 
1.381E+00   3.261E+00  4.087E-01 
1.397E+00   3.280E+00  4.067E-01 
1.413E+00   3.299E+00  4.046E-01 
1.430E+00   3.318E+00  4.025E-01 
1.446E+00   3.337E+00  4.005E-01 
1.463E+00   3.356E+00  3.984E-01 
1.480E+00   3.375E+00  3.963E-01 
1.497E+00   3.395E+00  3.943E-01 
1.515E+00   3.415E+00  3.922E-01 
1.532E+00   3.434E+00  3.902E-01 
1.550E+00   3.454E+00  3.881E-01 
1.568E+00   3.474E+00  3.860E-01 
1.586E+00   3.494E+00  3.840E-01 
1.605E+00   3.515E+00  3.819E-01 
1.623E+00   3.535E+00  3.799E-01 
1.642E+00   3.555E+00  3.779E-01 
1.661E+00   3.576E+00  3.758E-01 
1.680E+00   3.597E+00  3.738E-01 
1.700E+00   3.617E+00  3.717E-01 
1.719E+00   3.638E+00  3.697E-01 
1.739E+00   3.659E+00  3.677E-01 
1.760E+00   3.680E+00  3.656E-01 
1.780E+00   3.702E+00  3.636E-01 
1.801E+00   3.723E+00  3.616E-01 
1.822E+00   3.745E+00  3.596E-01 
1.843E+00   3.766E+00  3.576E-01 
1.864E+00   3.788E+00  3.556E-01 
1.886E+00   3.810E+00  3.536E-01 
1.908E+00   3.832E+00  3.515E-01 
1.930E+00   3.854E+00  3.495E-01 
1.952E+00   3.876E+00  3.476E-01 
1.975E+00   3.899E+00  3.456E-01 
1.998E+00   3.921E+00  3.436E-01 
2.021E+00   3.944E+00  3.416E-01 
2.044E+00   3.965E+00  3.396E-01 
2.068E+00   3.986E+00  3.376E-01 
2.092E+00   4.008E+00  3.357E-01 
2.116E+00   4.029E+00  3.337E-01 
2.141E+00   4.051E+00  3.317E-01 
2.166E+00   4.072E+00  3.298E-01 
2.191E+00   4.094E+00  3.278E-01 
2.216E+00   4.116E+00  3.259E-01 
2.242E+00   4.138E+00  3.240E-01 
2.268E+00   4.161E+00  3.220E-01 
2.294E+00   4.183E+00  3.201E-01 
2.321E+00   4.206E+00  3.182E-01 
2.348E+00   4.228E+00  3.162E-01 
2.375E+00   4.251E+00  3.143E-01 
2.402E+00   4.274E+00  3.124E-01 
2.430E+00   4.297E+00  3.105E-01 
2.458E+00   4.320E+00  3.086E-01 
2.487E+00   4.343E+00  3.067E-01 
2.516E+00   4.367E+00  3.048E-01 
2.545E+00   4.390E+00  3.030E-01 
2.574E+00   4.414E+00  3.011E-01 
2.604E+00   4.437E+00  2.992E-01 
2.635E+00   4.461E+00  2.973E-01 
2.665E+00   4.485E+00  2.955E-01 
2.696E+00   4.510E+00  2.936E-01 
2.727E+00   4.534E+00  2.918E-01 
2.759E+00   4.558E+00  2.899E-01 
2.791E+00   4.583E+00  2.881E-01 
2.823E+00   4.608E+00  2.863E-01 
2.856E+00   4.632E+00  2.845E-01 
2.889E+00   4.657E+00  2.826E-01 
2.923E+00   4.682E+00  2.808E-01 
2.957E+00   4.708E+00  2.790E-01 
2.991E+00   4.733E+00  2.772E-01 
3.026E+00   4.759E+00  2.755E-01 
3.061E+00   4.784E+00  2.737E-01 
3.096E+00   4.810E+00  2.719E-01 
3.132E+00   4.836E+00  2.701E-01 
3.168E+00   4.862E+00  2.684E-01 
3.205E+00   4.888E+00  2.666E-01 
3.242E+00   4.915E+00  2.649E-01 
3.280E+00   4.941E+00  2.631E-01 
3.318E+00   4.968E+00  2.614E-01 
3.356E+00   4.995E+00  2.597E-01 
3.395E+00   5.022E+00  2.579E-01 
3.435E+00   5.049E+00  2.562E-01 
3.475E+00   5.076E+00  2.545E-01 
3.515E+00   5.103E+00  2.528E-01 
3.556E+00   5.131E+00  2.511E-01 
3.597E+00   5.158E+00  2.494E-01 
3.639E+00   5.186E+00  2.478E-01 
3.681E+00   5.214E+00  2.461E-01 
3.724E+00   5.242E+00  2.444E-01 
3.767E+00   5.271E+00  2.428E-01 
3.810E+00   5.299E+00  2.411E-01 
3.855E+00   5.328E+00  2.395E-01 
3.899E+00   5.356E+00  2.378E-01 
3.945E+00   5.385E+00  2.362E-01 
3.990E+00   5.414E+00  2.346E-01 
4.037E+00   5.443E+00  2.330E-01 
4.083E+00   5.473E+00  2.314E-01 
4.131E+00   5.502E+00  2.298E-01 
4.179E+00   5.532E+00  2.282E-01 
4.227E+00   5.562E+00  2.266E-01 
4.276E+00   5.591E+00  2.250E-01 
4.326E+00   5.622E+00  2.235E-01 
4.376E+00   5.652E+00  2.219E-01 
4.427E+00   5.682E+00  2.203E-01 
4.478E+00   5.713E+00  2.188E-01 
4.530E+00   5.744E+00  2.173E-01 
4.583E+00   5.774E+00  2.157E-01 
4.636E+00   5.806E+00  2.142E-01 
4.690E+00   5.837E+00  2.127E-01 
4.744E+00   5.868E+00  2.112E-01 
4.799E+00   5.900E+00  2.097E-01 
4.855E+00   5.931E+00  2.082E-01 
4.911E+00   5.963E+00  2.067E-01 
4.968E+00   5.995E+00  2.052E-01 
5.026E+00   6.027E+00  2.037E-01 
5.084E+00   6.060E+00  2.023E-01 
5.143E+00   6.092E+00  2.008E-01 
5.202E+00   6.125E+00  1.994E-01 
5.263E+00   6.158E+00  1.979E-01 
5.324E+00   6.191E+00  1.965E-01 
5.386E+00   6.224E+00  1.951E-01 
5.448E+00   6.257E+00  1.937E-01 
5.511E+00   6.291E+00  1.922E-01 
5.575E+00   6.324E+00  1.908E-01 
5.640E+00   6.358E+00  1.894E-01 
5.705E+00   6.392E+00  1.881E-01 
5.771E+00   6.426E+00  1.867E-01 
5.838E+00   6.460E+00  1.853E-01 
5.906E+00   6.495E+00  1.839E-01 
5.975E+00   6.530E+00  1.826E-01 
6.044E+00   6.564E+00  1.812E-01 
6.114E+00   6.599E+00  1.799E-01 
6.185E+00   6.634E+00  1.785E-01 
6.257E+00   6.670E+00  1.772E-01 
6.329E+00   6.705E+00  1.759E-01 
6.403E+00   6.741E+00  1.746E-01 
6.477E+00   6.777E+00  1.733E-01 
6.552E+00   6.813E+00  1.720E-01 
6.628E+00   6.849E+00  1.707E-01 
6.705E+00   6.885E+00  1.694E-01 
6.783E+00   6.922E+00  1.681E-01 
6.861E+00   6.958E+00  1.669E-01 
6.941E+00   6.995E+00  1.656E-01 
7.021E+00   7.032E+00  1.644E-01 
7.103E+00   7.069E+00  1.631E-01 
7.185E+00   7.106E+00  1.619E-01 
7.269E+00   7.144E+00  1.606E-01 
7.353E+00   7.181E+00  1.594E-01 
7.438E+00   7.219E+00  1.582E-01 
7.524E+00   7.257E+00  1.570E-01 
7.612E+00   7.295E+00  1.558E-01 
7.700E+00   7.334E+00  1.546E-01 
7.789E+00   7.372E+00  1.534E-01 
7.880E+00   7.411E+00  1.522E-01 
7.971E+00   7.450E+00  1.511E-01 
8.064E+00   7.488E+00  1.499E-01 
8.157E+00   7.528E+00  1.487E-01 
8.252E+00   7.567E+00  1.476E-01 
8.347E+00   7.606E+00  1.464E-01 
8.444E+00   7.646E+00  1.453E-01 
8.542E+00   7.686E+00  1.442E-01 
8.641E+00   7.725E+00  1.430E-01 
8.741E+00   7.766E+00  1.419E-01 
8.843E+00   7.806E+00  1.408E-01 
8.945E+00   7.846E+00  1.397E-01 
9.049E+00   7.887E+00  1.386E-01 
9.154E+00   7.927E+00  1.375E-01 
9.260E+00   7.968E+00  1.365E-01 
9.368E+00   8.009E+00  1.354E-01 
9.476E+00   8.050E+00  1.343E-01 
9.586E+00   8.092E+00  1.333E-01 
9.698E+00   8.133E+00  1.322E-01 
9.810E+00   8.175E+00  1.312E-01 
9.924E+00   8.216E+00  1.301E-01 
1.004E+01   8.258E+00  1.291E-01 
1.016E+01   8.300E+00  1.281E-01 
1.027E+01   8.342E+00  1.270E-01 
1.039E+01   8.385E+00  1.260E-01 
1.051E+01   8.427E+00  1.250E-01 
1.063E+01   8.470E+00  1.240E-01 
1.076E+01   8.513E+00  1.230E-01 
1.088E+01   8.555E+00  1.220E-01 
1.101E+01   8.598E+00  1.211E-01 
1.114E+01   8.642E+00  1.201E-01 
1.127E+01   8.685E+00  1.191E-01 
1.140E+01   8.728E+00  1.182E-01 
1.153E+01   8.772E+00  1.172E-01 
1.166E+01   8.815E+00  1.163E-01 
1.180E+01   8.859E+00  1.153E-01 
1.193E+01   8.903E+00  1.144E-01 
1.207E+01   8.947E+00  1.135E-01 
1.221E+01   8.991E+00  1.125E-01 
1.235E+01   9.035E+00  1.116E-01 
1.250E+01   9.080E+00  1.107E-01 
1.264E+01   9.124E+00  1.098E-01 
1.279E+01   9.169E+00  1.089E-01 
1.294E+01   9.213E+00  1.080E-01 
1.309E+01   9.258E+00  1.071E-01 
1.324E+01   9.303E+00  1.063E-01 
1.339E+01   9.348E+00  1.054E-01 
1.355E+01   9.393E+00  1.045E-01 
1.371E+01   9.438E+00  1.037E-01 
1.387E+01   9.483E+00  1.028E-01 
1.403E+01   9.528E+00  1.020E-01 
1.419E+01   9.574E+00  1.011E-01 
1.435E+01   9.619E+00  1.003E-01 
1.452E+01   9.665E+00  9.947E-02 
1.469E+01   9.710E+00  9.865E-02 
1.486E+01   9.756E+00  9.783E-02 
1.503E+01   9.801E+00  9.702E-02 
1.521E+01   9.847E+00  8.815E-02 
1.538E+01   9.893E+00  8.743E-02 
1.556E+01   9.939E+00  8.672E-02 
1.574E+01   9.985E+00  8.601E-02 
1.592E+01   1.003E+01  8.531E-02 
1.611E+01   1.008E+01  8.462E-02 
1.629E+01   1.012E+01  8.392E-02 
1.648E+01   1.017E+01  8.324E-02 
1.667E+01   1.022E+01  8.255E-02 
1.687E+01   1.026E+01  8.188E-02 
1.706E+01   1.031E+01  8.120E-02 
1.726E+01   1.035E+01  8.053E-02 
1.746E+01   1.040E+01  7.987E-02 
1.766E+01   1.045E+01  7.921E-02 
1.787E+01   1.049E+01  7.856E-02 
1.808E+01   1.054E+01  7.791E-02 
1.829E+01   1.058E+01  7.726E-02 
1.850E+01   1.063E+01  7.662E-02 
1.871E+01   1.068E+01  7.598E-02 
1.893E+01   1.072E+01  7.535E-02 
1.915E+01   1.077E+01  7.472E-02 
1.937E+01   1.082E+01  7.410E-02 
1.960E+01   1.086E+01  7.348E-02 
1.982E+01   1.091E+01  7.287E-02 
2.005E+01   1.095E+01  7.226E-02 
2.029E+01   1.100E+01  7.165E-02 
2.052E+01   1.105E+01  7.105E-02 
2.076E+01   1.109E+01  7.046E-02 
2.100E+01   1.114E+01  6.986E-02 
2.124E+01   1.118E+01  6.928E-02 
2.149E+01   1.123E+01  6.869E-02 
2.174E+01   1.128E+01  6.811E-02 
2.199E+01   1.132E+01  6.754E-02 
2.225E+01   1.137E+01  6.697E-02 
2.250E+01   1.141E+01  6.640E-02 
2.277E+01   1.146E+01  6.584E-02 
2.303E+01   1.150E+01  6.528E-02 
2.330E+01   1.155E+01  6.473E-02 
2.357E+01   1.159E+01  6.418E-02 
2.384E+01   1.164E+01  6.363E-02 
2.412E+01   1.168E+01  6.309E-02 
2.440E+01   1.173E+01  6.255E-02 
2.468E+01   1.177E+01  6.202E-02 
2.497E+01   1.182E+01  6.149E-02 
2.526E+01   1.186E+01  6.096E-02 
2.555E+01   1.191E+01  6.044E-02 
2.584E+01   1.195E+01  5.992E-02 
2.614E+01   1.200E+01  5.941E-02 
2.645E+01   1.204E+01  5.890E-02 
2.675E+01   1.208E+01  5.839E-02 
2.707E+01   1.213E+01  5.789E-02 
2.738E+01   1.217E+01  5.739E-02 
2.770E+01   1.221E+01  5.690E-02 
2.802E+01   1.226E+01  5.641E-02 
2.834E+01   1.230E+01  5.592E-02 
2.867E+01   1.234E+01  5.544E-02 
2.900E+01   1.239E+01  5.496E-02 
2.934E+01   1.243E+01  5.448E-02 
2.968E+01   1.247E+01  5.401E-02 
3.003E+01   1.251E+01  5.354E-02 
3.037E+01   1.256E+01  5.308E-02 
3.073E+01   1.260E+01  5.262E-02 
3.108E+01   1.264E+01  5.216E-02 
3.144E+01   1.268E+01  5.171E-02 
3.181E+01   1.272E+01  5.126E-02 
3.218E+01   1.277E+01  5.081E-02 
3.255E+01   1.281E+01  5.037E-02 
3.293E+01   1.285E+01  4.993E-02 
3.331E+01   1.289E+01  4.949E-02 
3.370E+01   1.293E+01  4.906E-02 
3.409E+01   1.297E+01  4.863E-02 
3.448E+01   1.301E+01  4.820E-02 
3.488E+01   1.305E+01  4.778E-02 
3.529E+01   1.309E+01  4.736E-02 
3.570E+01   1.313E+01  4.694E-02 
3.611E+01   1.317E+01  4.653E-02 
3.653E+01   1.321E+01  4.612E-02 
3.695E+01   1.325E+01  4.571E-02 
3.738E+01   1.329E+01  4.531E-02 
3.781E+01   1.332E+01  4.491E-02 
3.825E+01   1.336E+01  4.451E-02 
3.870E+01   1.340E+01  4.412E-02 
3.915E+01   1.344E+01  4.373E-02 
3.960E+01   1.348E+01  4.334E-02 
4.006E+01   1.351E+01  4.296E-02 
4.052E+01   1.355E+01  4.258E-02 
4.099E+01   1.359E+01  4.220E-02 
4.147E+01   1.362E+01  4.183E-02 
4.195E+01   1.366E+01  4.146E-02 
4.244E+01   1.370E+01  4.109E-02 
4.293E+01   1.373E+01  4.072E-02 
4.343E+01   1.377E+01  4.036E-02 
4.393E+01   1.380E+01  4.000E-02 
4.444E+01   1.384E+01  3.964E-02 
4.496E+01   1.387E+01  3.929E-02 
4.548E+01   1.390E+01  3.894E-02 
4.600E+01   1.394E+01  3.859E-02 
4.654E+01   1.397E+01  3.824E-02 
4.708E+01   1.400E+01  3.790E-02 
4.762E+01   1.403E+01  3.756E-02 
4.818E+01   1.407E+01  3.723E-02 
4.873E+01   1.410E+01  3.689E-02 
4.930E+01   1.413E+01  3.656E-02 
4.987E+01   1.416E+01  3.623E-02 
5.045E+01   1.419E+01  3.591E-02 
5.104E+01   1.422E+01  3.558E-02 
5.163E+01   1.425E+01  3.526E-02 
5.223E+01   1.428E+01  3.495E-02 
5.283E+01   1.431E+01  3.463E-02 
5.344E+01   1.433E+01  3.432E-02 
5.406E+01   1.436E+01  3.401E-02 
5.469E+01   1.439E+01  3.370E-02 
5.533E+01   1.441E+01  3.340E-02 
5.597E+01   1.444E+01  3.310E-02 
5.662E+01   1.446E+01  3.280E-02 
5.727E+01   1.449E+01  3.250E-02 
5.794E+01   1.451E+01  3.221E-02 
5.861E+01   1.454E+01  3.191E-02 
5.929E+01   1.456E+01  3.162E-02 
5.998E+01   1.458E+01  3.134E-02 
6.067E+01   1.460E+01  3.105E-02 
6.138E+01   1.462E+01  3.077E-02 
6.209E+01   1.464E+01  3.049E-02 
6.281E+01   1.466E+01  3.021E-02 
6.354E+01   1.468E+01  2.994E-02 
6.427E+01   1.469E+01  2.966E-02 
6.502E+01   1.471E+01  2.939E-02 
6.577E+01   1.473E+01  2.913E-02 
6.654E+01   1.474E+01  2.886E-02 
6.731E+01   1.476E+01  2.860E-02 
6.809E+01   1.477E+01  2.834E-02 
6.888E+01   1.478E+01  2.808E-02 
6.968E+01   1.479E+01  2.782E-02 
7.049E+01   1.480E+01  2.756E-02 
7.130E+01   1.481E+01  2.731E-02 
7.213E+01   1.482E+01  2.706E-02 
7.297E+01   1.483E+01  2.681E-02 
7.381E+01   1.484E+01  2.657E-02 
7.467E+01   1.484E+01  2.632E-02 
7.554E+01   1.485E+01  2.608E-02 
7.641E+01   1.485E+01  2.584E-02 
7.730E+01   1.486E+01  2.560E-02 
7.820E+01   1.486E+01  2.537E-02 
7.910E+01   1.486E+01  2.514E-02 
8.002E+01   1.486E+01  2.490E-02 
8.095E+01   1.486E+01  2.467E-02 
8.189E+01   1.485E+01  2.445E-02 
8.284E+01   1.485E+01  2.422E-02 
8.380E+01   1.485E+01  2.400E-02 
8.477E+01   1.484E+01  2.378E-02 
8.575E+01   1.483E+01  2.356E-02 
8.675E+01   1.483E+01  2.334E-02 
8.775E+01   1.482E+01  2.312E-02 
8.877E+01   1.481E+01  2.291E-02 
8.980E+01   1.480E+01  2.270E-02 
9.084E+01   1.478E+01  2.249E-02 
9.190E+01   1.477E+01  2.228E-02 
9.296E+01   1.476E+01  2.207E-02 
9.404E+01   1.474E+01  2.187E-02 
9.513E+01   1.472E+01  2.166E-02 
9.624E+01   1.471E+01  2.146E-02 
9.735E+01   1.469E+01  2.126E-02 
9.848E+01   1.467E+01  2.106E-02 
9.962E+01   1.465E+01  2.087E-02 
1.008E+02   1.462E+01  2.067E-02 
1.019E+02   1.460E+01  2.048E-02 
1.031E+02   1.458E+01  2.029E-02 
1.043E+02   1.455E+01  2.010E-02 
1.055E+02   1.452E+01  1.991E-02 
1.068E+02   1.450E+01  1.973E-02 
1.080E+02   1.447E+01  1.954E-02 
1.093E+02   1.444E+01  1.936E-02 
1.105E+02   1.441E+01  1.918E-02 
1.118E+02   1.437E+01  1.900E-02 
1.131E+02   1.434E+01  1.882E-02 
1.144E+02   1.431E+01  1.865E-02 
1.157E+02   1.427E+01  1.847E-02 
1.171E+02   1.423E+01  1.830E-02 
1.184E+02   1.420E+01  1.813E-02 
1.198E+02   1.416E+01  1.796E-02 
1.212E+02   1.412E+01  1.779E-02 
1.226E+02   1.408E+01  1.762E-02 
1.240E+02   1.404E+01  1.746E-02 
1.255E+02   1.400E+01  1.729E-02 
1.269E+02   1.395E+01  1.713E-02 
1.284E+02   1.391E+01  1.697E-02 
1.299E+02   1.387E+01  1.681E-02 
1.314E+02   1.382E+01  1.665E-02 
1.329E+02   1.377E+01  1.649E-02 
1.345E+02   1.373E+01  1.634E-02 
1.360E+02   1.368E+01  1.618E-02 
1.376E+02   1.363E+01  1.603E-02 
1.392E+02   1.358E+01  1.588E-02 
1.408E+02   1.353E+01  1.573E-02 
1.424E+02   1.348E+01  1.558E-02 
1.441E+02   1.343E+01  1.543E-02 
1.458E+02   1.338E+01  1.529E-02 
1.475E+02   1.332E+01  1.514E-02 
1.492E+02   1.327E+01  1.500E-02 
1.509E+02   1.322E+01  1.486E-02 
1.526E+02   1.316E+01  1.472E-02 
1.544E+02   1.311E+01  1.458E-02 
1.562E+02   1.305E+01  1.444E-02 
1.580E+02   1.299E+01  1.430E-02 
1.598E+02   1.294E+01  1.417E-02 
1.617E+02   1.288E+01  1.403E-02 
1.636E+02   1.282E+01  1.390E-02 
1.655E+02   1.276E+01  1.377E-02 
1.674E+02   1.270E+01  1.364E-02 
1.693E+02   1.265E+01  1.351E-02 
1.713E+02   1.259E+01  1.338E-02 
1.733E+02   1.253E+01  1.325E-02 
1.753E+02   1.247E+01  1.313E-02 
1.773E+02   1.241E+01  1.300E-02 
1.794E+02   1.234E+01  1.288E-02 
1.815E+02   1.228E+01  1.275E-02 
1.836E+02   1.222E+01  1.263E-02 
1.857E+02   1.216E+01  1.251E-02 
1.879E+02   1.210E+01  1.239E-02 
1.900E+02   1.204E+01  1.227E-02 
1.922E+02   1.197E+01  1.216E-02 
1.945E+02   1.191E+01  1.204E-02 
1.967E+02   1.185E+01  1.193E-02 
1.990E+02   1.179E+01  1.181E-02 
2.013E+02   1.172E+01  1.170E-02 
2.036E+02   1.166E+01  1.159E-02 
2.060E+02   1.160E+01  1.148E-02 
2.084E+02   1.153E+01  1.137E-02 
2.108E+02   1.147E+01  1.126E-02 
2.133E+02   1.141E+01  1.115E-02 
2.157E+02   1.134E+01  1.104E-02 
2.182E+02   1.128E+01  1.094E-02 
2.208E+02   1.121E+01  1.083E-02 
2.233E+02   1.115E+01  1.073E-02 
2.259E+02   1.109E+01  1.063E-02 
2.285E+02   1.102E+01  1.052E-02 
2.312E+02   1.096E+01  1.042E-02 
2.339E+02   1.090E+01  1.032E-02 
2.366E+02   1.083E+01  1.022E-02 
2.393E+02   1.077E+01  1.013E-02 
2.421E+02   1.070E+01  1.003E-02 
2.449E+02   1.064E+01  9.931E-03 
2.478E+02   1.058E+01  9.836E-03 
2.506E+02   1.051E+01  9.741E-03 
2.535E+02   1.045E+01  9.647E-03 
2.565E+02   1.039E+01  9.554E-03 
2.595E+02   1.032E+01  9.462E-03 
2.625E+02   1.026E+01  9.371E-03 
2.655E+02   1.020E+01  9.281E-03 
2.686E+02   1.014E+01  9.191E-03 
2.717E+02   1.007E+01  9.102E-03 
2.749E+02   1.001E+01  9.014E-03 
2.780E+02   9.948E+00  8.927E-03 
2.813E+02   9.886E+00  8.841E-03 
2.845E+02   9.824E+00  8.756E-03 
2.878E+02   9.762E+00  8.671E-03 
2.912E+02   9.700E+00  8.587E-03 
2.945E+02   9.639E+00  8.504E-03 
2.980E+02   9.578E+00  8.422E-03 
3.014E+02   9.517E+00  8.340E-03 
3.049E+02   9.456E+00  8.259E-03 
3.085E+02   9.395E+00  8.179E-03 
3.120E+02   9.335E+00  8.100E-03 
3.156E+02   9.275E+00  8.022E-03 
3.193E+02   9.215E+00  7.944E-03 
3.230E+02   9.155E+00  7.867E-03 
3.268E+02   9.095E+00  7.790E-03 
3.306E+02   9.036E+00  7.715E-03 
3.344E+02   8.977E+00  7.640E-03 
3.383E+02   8.918E+00  7.566E-03 
3.422E+02   8.860E+00  7.492E-03 
3.462E+02   8.801E+00  7.419E-03 
3.502E+02   8.743E+00  7.347E-03 
3.542E+02   8.685E+00  7.276E-03 
3.583E+02   8.628E+00  7.205E-03 
3.625E+02   8.571E+00  7.135E-03 
3.667E+02   8.514E+00  7.065E-03 
3.710E+02   8.457E+00  6.997E-03 
3.753E+02   8.400E+00  6.929E-03 
3.796E+02   8.344E+00  6.861E-03 
3.840E+02   8.288E+00  6.794E-03 
3.885E+02   8.232E+00  6.728E-03 
3.930E+02   8.177E+00  6.662E-03 
3.975E+02   8.121E+00  6.597E-03 
4.021E+02   8.067E+00  6.533E-03 
4.068E+02   8.012E+00  6.469E-03 
4.115E+02   7.958E+00  6.406E-03 
4.163E+02   7.903E+00  6.343E-03 
4.211E+02   7.850E+00  6.281E-03 
4.260E+02   7.796E+00  6.220E-03 
4.310E+02   7.743E+00  6.159E-03 
4.360E+02   7.690E+00  6.099E-03 
4.410E+02   7.637E+00  6.039E-03 
4.461E+02   7.585E+00  5.980E-03 
4.513E+02   7.532E+00  5.922E-03 
4.565E+02   7.481E+00  5.864E-03 
4.618E+02   7.429E+00  5.806E-03 
4.672E+02   7.378E+00  5.749E-03 
4.726E+02   7.327E+00  5.693E-03 
4.781E+02   7.276E+00  5.637E-03 
4.836E+02   7.226E+00  5.582E-03 
4.892E+02   7.175E+00  5.527E-03 
4.949E+02   7.125E+00  5.473E-03 
5.007E+02   7.076E+00  5.419E-03 
5.065E+02   7.027E+00  5.366E-03 
5.123E+02   6.977E+00  5.314E-03 
5.183E+02   6.929E+00  5.261E-03 
5.243E+02   6.880E+00  5.210E-03 
5.304E+02   6.832E+00  5.158E-03 
5.365E+02   6.784E+00  5.108E-03 
5.428E+02   6.736E+00  5.058E-03 
5.490E+02   6.689E+00  5.008E-03 
5.554E+02   6.642E+00  4.959E-03 
5.619E+02   6.595E+00  4.910E-03 
5.684E+02   6.549E+00  4.861E-03 
5.750E+02   6.502E+00  4.814E-03 
5.816E+02   6.456E+00  4.766E-03 
5.884E+02   6.411E+00  4.719E-03 
5.952E+02   6.365E+00  4.673E-03 
6.021E+02   6.320E+00  4.627E-03 
6.091E+02   6.275E+00  4.581E-03 
6.162E+02   6.231E+00  4.536E-03 
6.233E+02   6.186E+00  4.491E-03 
6.305E+02   6.142E+00  4.447E-03 
6.378E+02   6.099E+00  4.403E-03 
6.452E+02   6.055E+00  4.359E-03 
6.527E+02   6.012E+00  4.316E-03 
6.603E+02   5.969E+00  4.274E-03 
6.680E+02   5.926E+00  4.232E-03 
6.757E+02   5.884E+00  4.190E-03 
6.835E+02   5.842E+00  4.148E-03 
6.915E+02   5.800E+00  4.107E-03 
6.995E+02   5.758E+00  4.067E-03 
7.076E+02   5.717E+00  4.027E-03 
7.158E+02   5.676E+00  3.987E-03 
7.241E+02   5.635E+00  3.947E-03 
7.325E+02   5.594E+00  3.908E-03 
7.410E+02   5.554E+00  3.869E-03 
7.496E+02   5.514E+00  3.831E-03 
7.583E+02   5.474E+00  3.793E-03 
7.671E+02   5.434E+00  3.756E-03 
7.760E+02   5.395E+00  3.718E-03 
7.850E+02   5.356E+00  3.682E-03 
7.941E+02   5.317E+00  3.645E-03 
8.033E+02   5.279E+00  3.609E-03 
8.126E+02   5.240E+00  3.573E-03 
8.221E+02   5.202E+00  3.538E-03 
8.316E+02   5.164E+00  3.502E-03 
