Ion = Helium      . Mass = 4.0026
Tgt = Nb (Solid). Density = 8.57 g/cm3
Stopping Units =  eV/(1E15 atoms/cm2)
Energy(keV)  S(Elec)    S(Nuc)
1.000E+00   6.422E+00  2.632E+00 
1.013E+00   6.463E+00  2.637E+00 
1.026E+00   6.505E+00  2.641E+00 
1.039E+00   6.547E+00  2.646E+00 
1.053E+00   6.590E+00  2.651E+00 
1.067E+00   6.633E+00  2.655E+00 
1.081E+00   6.676E+00  2.660E+00 
1.095E+00   6.719E+00  2.665E+00 
1.109E+00   6.762E+00  2.669E+00 
1.123E+00   6.806E+00  2.674E+00 
1.138E+00   6.850E+00  2.678E+00 
1.153E+00   6.895E+00  2.682E+00 
1.168E+00   6.939E+00  2.687E+00 
1.183E+00   6.984E+00  2.691E+00 
1.198E+00   7.029E+00  2.695E+00 
1.214E+00   7.075E+00  2.699E+00 
1.229E+00   7.121E+00  2.703E+00 
1.245E+00   7.167E+00  2.708E+00 
1.262E+00   7.213E+00  2.712E+00 
1.278E+00   7.260E+00  2.716E+00 
1.295E+00   7.307E+00  2.719E+00 
1.311E+00   7.354E+00  2.723E+00 
1.329E+00   7.402E+00  2.727E+00 
1.346E+00   7.450E+00  2.731E+00 
1.363E+00   7.498E+00  2.735E+00 
1.381E+00   7.547E+00  2.738E+00 
1.399E+00   7.596E+00  2.742E+00 
1.417E+00   7.645E+00  2.745E+00 
1.436E+00   7.694E+00  2.749E+00 
1.454E+00   7.744E+00  2.752E+00 
1.473E+00   7.794E+00  2.756E+00 
1.492E+00   7.845E+00  2.759E+00 
1.512E+00   7.896E+00  2.762E+00 
1.531E+00   7.947E+00  2.765E+00 
1.551E+00   7.998E+00  2.769E+00 
1.571E+00   8.050E+00  2.772E+00 
1.592E+00   8.102E+00  2.775E+00 
1.612E+00   8.155E+00  2.778E+00 
1.633E+00   8.208E+00  2.781E+00 
1.655E+00   8.261E+00  2.784E+00 
1.676E+00   8.314E+00  2.786E+00 
1.698E+00   8.368E+00  2.789E+00 
1.720E+00   8.422E+00  2.792E+00 
1.742E+00   8.477E+00  2.794E+00 
1.765E+00   8.532E+00  2.797E+00 
1.788E+00   8.587E+00  2.799E+00 
1.811E+00   8.643E+00  2.802E+00 
1.835E+00   8.699E+00  2.804E+00 
1.859E+00   8.755E+00  2.807E+00 
1.883E+00   8.812E+00  2.809E+00 
1.907E+00   8.869E+00  2.811E+00 
1.932E+00   8.926E+00  2.813E+00 
1.957E+00   8.984E+00  2.815E+00 
1.983E+00   9.042E+00  2.817E+00 
2.008E+00   9.101E+00  2.819E+00 
2.034E+00   9.160E+00  2.821E+00 
2.061E+00   9.219E+00  2.823E+00 
2.088E+00   9.279E+00  2.824E+00 
2.115E+00   9.339E+00  2.826E+00 
2.142E+00   9.399E+00  2.828E+00 
2.170E+00   9.460E+00  2.829E+00 
2.198E+00   9.522E+00  2.831E+00 
2.227E+00   9.583E+00  2.832E+00 
2.256E+00   9.645E+00  2.833E+00 
2.285E+00   9.708E+00  2.835E+00 
2.315E+00   9.771E+00  2.836E+00 
2.345E+00   9.834E+00  2.837E+00 
2.375E+00   9.898E+00  2.838E+00 
2.406E+00   9.962E+00  2.839E+00 
2.438E+00   1.003E+01  2.840E+00 
2.469E+00   1.009E+01  2.841E+00 
2.501E+00   1.016E+01  2.841E+00 
2.534E+00   1.022E+01  2.842E+00 
2.567E+00   1.029E+01  2.843E+00 
2.600E+00   1.036E+01  2.843E+00 
2.634E+00   1.042E+01  2.844E+00 
2.668E+00   1.049E+01  2.844E+00 
2.703E+00   1.056E+01  2.844E+00 
2.738E+00   1.063E+01  2.845E+00 
2.773E+00   1.069E+01  2.845E+00 
2.810E+00   1.076E+01  2.845E+00 
2.846E+00   1.083E+01  2.845E+00 
2.883E+00   1.090E+01  2.845E+00 
2.921E+00   1.097E+01  2.845E+00 
2.958E+00   1.105E+01  2.845E+00 
2.997E+00   1.112E+01  2.844E+00 
3.036E+00   1.119E+01  2.844E+00 
3.075E+00   1.126E+01  2.843E+00 
3.115E+00   1.133E+01  2.843E+00 
3.156E+00   1.141E+01  2.842E+00 
3.197E+00   1.148E+01  2.842E+00 
3.238E+00   1.156E+01  2.841E+00 
3.280E+00   1.163E+01  2.840E+00 
3.323E+00   1.171E+01  2.839E+00 
3.366E+00   1.178E+01  2.838E+00 
3.410E+00   1.186E+01  2.837E+00 
3.454E+00   1.194E+01  2.836E+00 
3.499E+00   1.201E+01  2.835E+00 
3.545E+00   1.209E+01  2.834E+00 
3.591E+00   1.217E+01  2.832E+00 
3.637E+00   1.225E+01  2.831E+00 
3.685E+00   1.233E+01  2.830E+00 
3.733E+00   1.241E+01  2.828E+00 
3.781E+00   1.249E+01  2.826E+00 
3.830E+00   1.257E+01  2.825E+00 
3.880E+00   1.265E+01  2.823E+00 
3.930E+00   1.273E+01  2.821E+00 
3.982E+00   1.281E+01  2.819E+00 
4.033E+00   1.290E+01  2.817E+00 
4.086E+00   1.298E+01  2.815E+00 
4.139E+00   1.306E+01  2.813E+00 
4.193E+00   1.315E+01  2.810E+00 
4.247E+00   1.323E+01  2.808E+00 
4.302E+00   1.332E+01  2.805E+00 
4.358E+00   1.341E+01  2.803E+00 
4.415E+00   1.349E+01  2.800E+00 
4.472E+00   1.358E+01  2.798E+00 
4.530E+00   1.367E+01  2.795E+00 
4.589E+00   1.376E+01  2.792E+00 
4.649E+00   1.385E+01  2.789E+00 
4.709E+00   1.394E+01  2.786E+00 
4.770E+00   1.403E+01  2.783E+00 
4.832E+00   1.412E+01  2.780E+00 
4.895E+00   1.421E+01  2.777E+00 
4.959E+00   1.430E+01  2.773E+00 
5.023E+00   1.439E+01  2.770E+00 
5.089E+00   1.449E+01  2.766E+00 
5.155E+00   1.458E+01  2.763E+00 
5.222E+00   1.467E+01  2.759E+00 
5.290E+00   1.477E+01  2.755E+00 
5.358E+00   1.487E+01  2.752E+00 
5.428E+00   1.496E+01  2.748E+00 
5.499E+00   1.506E+01  2.744E+00 
5.570E+00   1.516E+01  2.740E+00 
5.642E+00   1.525E+01  2.736E+00 
5.716E+00   1.535E+01  2.731E+00 
5.790E+00   1.545E+01  2.727E+00 
5.865E+00   1.555E+01  2.723E+00 
5.942E+00   1.565E+01  2.718E+00 
6.019E+00   1.575E+01  2.714E+00 
6.097E+00   1.586E+01  2.709E+00 
6.176E+00   1.596E+01  2.705E+00 
6.256E+00   1.606E+01  2.700E+00 
6.338E+00   1.617E+01  2.695E+00 
6.420E+00   1.627E+01  2.690E+00 
6.504E+00   1.638E+01  2.685E+00 
6.588E+00   1.648E+01  2.680E+00 
6.674E+00   1.659E+01  2.675E+00 
6.760E+00   1.670E+01  2.670E+00 
6.848E+00   1.681E+01  2.665E+00 
6.937E+00   1.691E+01  2.659E+00 
7.027E+00   1.702E+01  2.654E+00 
7.119E+00   1.713E+01  2.649E+00 
7.211E+00   1.725E+01  2.643E+00 
7.305E+00   1.736E+01  2.637E+00 
7.400E+00   1.747E+01  2.632E+00 
7.496E+00   1.758E+01  2.626E+00 
7.594E+00   1.770E+01  2.620E+00 
7.692E+00   1.781E+01  2.614E+00 
7.792E+00   1.793E+01  2.608E+00 
7.894E+00   1.804E+01  2.602E+00 
7.996E+00   1.816E+01  2.596E+00 
8.100E+00   1.828E+01  2.590E+00 
8.205E+00   1.841E+01  2.584E+00 
8.312E+00   1.853E+01  2.577E+00 
8.420E+00   1.866E+01  2.571E+00 
8.529E+00   1.878E+01  2.564E+00 
8.640E+00   1.891E+01  2.558E+00 
8.753E+00   1.904E+01  2.551E+00 
8.866E+00   1.917E+01  2.545E+00 
8.982E+00   1.930E+01  2.538E+00 
9.098E+00   1.943E+01  2.531E+00 
9.217E+00   1.957E+01  2.524E+00 
9.336E+00   1.970E+01  2.517E+00 
9.458E+00   1.983E+01  2.510E+00 
9.581E+00   1.997E+01  2.503E+00 
9.705E+00   2.011E+01  2.496E+00 
9.831E+00   2.024E+01  2.489E+00 
9.959E+00   2.038E+01  2.482E+00 
1.009E+01   2.052E+01  2.474E+00 
1.022E+01   2.066E+01  2.467E+00 
1.035E+01   2.081E+01  2.460E+00 
1.049E+01   2.095E+01  2.452E+00 
1.062E+01   2.109E+01  2.445E+00 
1.076E+01   2.124E+01  2.437E+00 
1.090E+01   2.138E+01  2.429E+00 
1.104E+01   2.153E+01  2.422E+00 
1.119E+01   2.168E+01  2.414E+00 
1.133E+01   2.183E+01  2.406E+00 
1.148E+01   2.198E+01  2.398E+00 
1.163E+01   2.213E+01  2.390E+00 
1.178E+01   2.229E+01  2.382E+00 
1.193E+01   2.244E+01  2.374E+00 
1.209E+01   2.260E+01  2.366E+00 
1.224E+01   2.275E+01  2.358E+00 
1.240E+01   2.291E+01  2.350E+00 
1.256E+01   2.307E+01  2.342E+00 
1.273E+01   2.323E+01  2.333E+00 
1.289E+01   2.339E+01  2.325E+00 
1.306E+01   2.356E+01  2.317E+00 
1.323E+01   2.372E+01  2.308E+00 
1.340E+01   2.388E+01  2.300E+00 
1.358E+01   2.405E+01  2.291E+00 
1.375E+01   2.422E+01  2.283E+00 
1.393E+01   2.439E+01  2.274E+00 
1.411E+01   2.456E+01  2.266E+00 
1.430E+01   2.473E+01  2.257E+00 
1.448E+01   2.491E+01  2.248E+00 
1.467E+01   2.508E+01  2.240E+00 
1.486E+01   2.526E+01  2.231E+00 
1.505E+01   2.543E+01  2.222E+00 
1.525E+01   2.561E+01  2.213E+00 
1.545E+01   2.579E+01  2.204E+00 
1.565E+01   2.598E+01  2.195E+00 
1.585E+01   2.616E+01  2.186E+00 
1.606E+01   2.634E+01  2.177E+00 
1.627E+01   2.653E+01  2.168E+00 
1.648E+01   2.672E+01  2.159E+00 
1.669E+01   2.691E+01  2.150E+00 
1.691E+01   2.710E+01  2.141E+00 
1.713E+01   2.729E+01  2.132E+00 
1.735E+01   2.748E+01  2.123E+00 
1.758E+01   2.768E+01  2.113E+00 
1.781E+01   2.788E+01  2.104E+00 
1.804E+01   2.807E+01  2.095E+00 
1.827E+01   2.827E+01  2.085E+00 
1.851E+01   2.848E+01  2.076E+00 
1.875E+01   2.868E+01  2.067E+00 
1.899E+01   2.888E+01  2.057E+00 
1.924E+01   2.909E+01  2.048E+00 
1.949E+01   2.930E+01  2.039E+00 
1.974E+01   2.951E+01  2.029E+00 
2.000E+01   2.972E+01  2.020E+00 
2.026E+01   2.994E+01  2.010E+00 
2.052E+01   3.015E+01  2.001E+00 
2.079E+01   3.037E+01  1.991E+00 
2.106E+01   3.059E+01  1.982E+00 
2.133E+01   3.081E+01  1.972E+00 
2.161E+01   3.103E+01  1.963E+00 
2.189E+01   3.125E+01  1.953E+00 
2.218E+01   3.148E+01  1.943E+00 
2.247E+01   3.171E+01  1.934E+00 
2.276E+01   3.194E+01  1.924E+00 
2.305E+01   3.217E+01  1.915E+00 
2.335E+01   3.240E+01  1.905E+00 
2.366E+01   3.264E+01  1.895E+00 
2.396E+01   3.287E+01  1.886E+00 
2.428E+01   3.311E+01  1.876E+00 
2.459E+01   3.336E+01  1.866E+00 
2.491E+01   3.360E+01  1.857E+00 
2.523E+01   3.384E+01  1.847E+00 
2.556E+01   3.409E+01  1.837E+00 
2.589E+01   3.434E+01  1.828E+00 
2.623E+01   3.459E+01  1.818E+00 
2.657E+01   3.485E+01  1.808E+00 
2.692E+01   3.510E+01  1.798E+00 
2.727E+01   3.536E+01  1.789E+00 
2.762E+01   3.562E+01  1.779E+00 
2.798E+01   3.588E+01  1.769E+00 
2.834E+01   3.614E+01  1.760E+00 
2.871E+01   3.641E+01  1.750E+00 
2.909E+01   3.668E+01  1.740E+00 
2.946E+01   3.695E+01  1.731E+00 
2.985E+01   3.722E+01  1.721E+00 
3.023E+01   3.750E+01  1.711E+00 
3.063E+01   3.778E+01  1.701E+00 
3.103E+01   3.805E+01  1.692E+00 
3.143E+01   3.834E+01  1.682E+00 
3.184E+01   3.862E+01  1.672E+00 
3.225E+01   3.891E+01  1.663E+00 
3.267E+01   3.920E+01  1.653E+00 
3.309E+01   3.949E+01  1.644E+00 
3.352E+01   3.978E+01  1.634E+00 
3.396E+01   4.008E+01  1.624E+00 
3.440E+01   4.037E+01  1.615E+00 
3.485E+01   4.068E+01  1.605E+00 
3.530E+01   4.098E+01  1.595E+00 
3.576E+01   4.128E+01  1.586E+00 
3.623E+01   4.159E+01  1.576E+00 
3.670E+01   4.190E+01  1.567E+00 
3.717E+01   4.221E+01  1.557E+00 
3.766E+01   4.253E+01  1.548E+00 
3.815E+01   4.285E+01  1.538E+00 
3.864E+01   4.317E+01  1.529E+00 
3.914E+01   4.349E+01  1.519E+00 
3.965E+01   4.381E+01  1.510E+00 
4.017E+01   4.414E+01  1.501E+00 
4.069E+01   4.447E+01  1.491E+00 
4.122E+01   4.480E+01  1.482E+00 
4.175E+01   4.514E+01  1.472E+00 
4.230E+01   4.548E+01  1.463E+00 
4.285E+01   4.582E+01  1.454E+00 
4.340E+01   4.616E+01  1.444E+00 
4.397E+01   4.650E+01  1.435E+00 
4.454E+01   4.685E+01  1.426E+00 
4.512E+01   4.720E+01  1.417E+00 
4.570E+01   4.755E+01  1.407E+00 
4.630E+01   4.791E+01  1.398E+00 
4.690E+01   4.827E+01  1.389E+00 
4.751E+01   4.863E+01  1.380E+00 
4.813E+01   4.899E+01  1.371E+00 
4.875E+01   4.935E+01  1.362E+00 
4.939E+01   4.972E+01  1.353E+00 
5.003E+01   5.009E+01  1.344E+00 
5.068E+01   5.046E+01  1.335E+00 
5.134E+01   5.084E+01  1.326E+00 
5.200E+01   5.121E+01  1.317E+00 
5.268E+01   5.159E+01  1.308E+00 
5.336E+01   5.197E+01  1.299E+00 
5.406E+01   5.236E+01  1.290E+00 
5.476E+01   5.274E+01  1.281E+00 
5.547E+01   5.313E+01  1.272E+00 
5.619E+01   5.352E+01  1.264E+00 
5.692E+01   5.391E+01  1.255E+00 
5.766E+01   5.431E+01  1.246E+00 
5.841E+01   5.471E+01  1.237E+00 
5.917E+01   5.510E+01  1.229E+00 
5.994E+01   5.551E+01  1.220E+00 
6.072E+01   5.591E+01  1.212E+00 
6.151E+01   5.631E+01  1.203E+00 
6.231E+01   5.672E+01  1.195E+00 
6.312E+01   5.713E+01  1.186E+00 
6.394E+01   5.754E+01  1.178E+00 
6.477E+01   5.795E+01  1.169E+00 
6.561E+01   5.836E+01  1.161E+00 
6.646E+01   5.878E+01  1.152E+00 
6.733E+01   5.919E+01  1.144E+00 
6.820E+01   5.961E+01  1.136E+00 
6.909E+01   6.003E+01  1.128E+00 
6.999E+01   6.045E+01  1.119E+00 
7.090E+01   6.087E+01  1.111E+00 
7.182E+01   6.129E+01  1.103E+00 
7.275E+01   6.172E+01  1.095E+00 
7.370E+01   6.214E+01  1.087E+00 
7.465E+01   6.257E+01  1.079E+00 
7.562E+01   6.300E+01  1.071E+00 
7.661E+01   6.342E+01  1.063E+00 
7.760E+01   6.385E+01  1.055E+00 
7.861E+01   6.428E+01  1.047E+00 
7.963E+01   6.471E+01  1.039E+00 
8.067E+01   6.514E+01  1.031E+00 
8.172E+01   6.557E+01  1.024E+00 
8.278E+01   6.600E+01  1.016E+00 
8.385E+01   6.643E+01  1.008E+00 
8.494E+01   6.686E+01  1.000E+00 
8.605E+01   6.729E+01  9.928E-01 
8.717E+01   6.772E+01  9.852E-01 
8.830E+01   6.815E+01  9.776E-01 
8.945E+01   6.858E+01  9.701E-01 
9.061E+01   6.901E+01  9.627E-01 
9.179E+01   6.944E+01  9.552E-01 
9.298E+01   6.987E+01  9.478E-01 
9.419E+01   7.030E+01  9.405E-01 
9.541E+01   7.072E+01  9.331E-01 
9.665E+01   7.115E+01  9.259E-01 
9.791E+01   7.158E+01  9.186E-01 
9.918E+01   7.200E+01  9.114E-01 
1.005E+02   7.243E+01  9.042E-01 
1.018E+02   7.285E+01  8.971E-01 
1.031E+02   7.328E+01  8.900E-01 
1.044E+02   7.370E+01  8.830E-01 
1.058E+02   7.412E+01  8.760E-01 
1.072E+02   7.454E+01  8.690E-01 
1.086E+02   7.497E+01  8.621E-01 
1.100E+02   7.539E+01  8.552E-01 
1.114E+02   7.580E+01  8.483E-01 
1.129E+02   7.622E+01  8.415E-01 
1.143E+02   7.664E+01  8.347E-01 
1.158E+02   7.706E+01  8.280E-01 
1.173E+02   7.747E+01  8.213E-01 
1.188E+02   7.789E+01  8.147E-01 
1.204E+02   7.830E+01  8.080E-01 
1.219E+02   7.872E+01  8.015E-01 
1.235E+02   7.913E+01  7.949E-01 
1.251E+02   7.954E+01  7.884E-01 
1.268E+02   7.996E+01  7.820E-01 
1.284E+02   8.037E+01  7.756E-01 
1.301E+02   8.078E+01  7.692E-01 
1.318E+02   8.119E+01  7.628E-01 
1.335E+02   8.161E+01  7.565E-01 
1.352E+02   8.202E+01  7.503E-01 
1.370E+02   8.243E+01  7.440E-01 
1.388E+02   8.284E+01  7.379E-01 
1.406E+02   8.326E+01  7.317E-01 
1.424E+02   8.367E+01  7.256E-01 
1.442E+02   8.409E+01  7.195E-01 
1.461E+02   8.450E+01  7.135E-01 
1.480E+02   8.492E+01  7.075E-01 
1.499E+02   8.533E+01  7.016E-01 
1.519E+02   8.575E+01  6.957E-01 
1.539E+02   8.617E+01  6.898E-01 
1.559E+02   8.659E+01  6.840E-01 
1.579E+02   8.701E+01  6.782E-01 
1.599E+02   8.744E+01  6.724E-01 
1.620E+02   8.786E+01  6.667E-01 
1.641E+02   8.829E+01  6.610E-01 
1.662E+02   8.872E+01  6.554E-01 
1.684E+02   8.915E+01  6.498E-01 
1.706E+02   8.958E+01  6.442E-01 
1.728E+02   9.002E+01  6.387E-01 
1.751E+02   9.045E+01  6.332E-01 
1.773E+02   9.089E+01  6.277E-01 
1.796E+02   9.134E+01  6.223E-01 
1.820E+02   9.178E+01  6.169E-01 
1.843E+02   9.223E+01  6.116E-01 
1.867E+02   9.268E+01  6.063E-01 
1.892E+02   9.313E+01  6.010E-01 
1.916E+02   9.358E+01  5.958E-01 
1.941E+02   9.404E+01  5.906E-01 
1.966E+02   9.450E+01  5.854E-01 
1.992E+02   9.496E+01  5.803E-01 
2.018E+02   9.542E+01  5.752E-01 
2.044E+02   9.589E+01  5.702E-01 
2.071E+02   9.636E+01  5.652E-01 
2.097E+02   9.683E+01  5.602E-01 
2.125E+02   9.730E+01  5.552E-01 
2.152E+02   9.778E+01  5.503E-01 
2.180E+02   9.826E+01  5.455E-01 
2.209E+02   9.874E+01  5.406E-01 
2.237E+02   9.922E+01  5.358E-01 
2.266E+02   9.971E+01  5.311E-01 
2.296E+02   1.002E+02  5.264E-01 
2.326E+02   1.007E+02  5.217E-01 
2.356E+02   1.012E+02  5.170E-01 
2.387E+02   1.017E+02  5.124E-01 
2.418E+02   1.022E+02  5.078E-01 
2.449E+02   1.027E+02  5.032E-01 
2.481E+02   1.032E+02  4.987E-01 
2.513E+02   1.037E+02  4.942E-01 
2.546E+02   1.042E+02  4.898E-01 
2.579E+02   1.047E+02  4.854E-01 
2.612E+02   1.052E+02  4.810E-01 
2.646E+02   1.057E+02  4.766E-01 
2.681E+02   1.062E+02  4.723E-01 
2.716E+02   1.067E+02  4.680E-01 
2.751E+02   1.072E+02  4.638E-01 
2.787E+02   1.077E+02  4.603E-01 
2.823E+02   1.082E+02  4.561E-01 
2.859E+02   1.087E+02  4.520E-01 
2.897E+02   1.092E+02  4.478E-01 
2.934E+02   1.097E+02  4.437E-01 
2.972E+02   1.102E+02  4.397E-01 
3.011E+02   1.107E+02  4.357E-01 
3.050E+02   1.112E+02  4.317E-01 
3.090E+02   1.117E+02  4.277E-01 
3.130E+02   1.122E+02  4.238E-01 
3.171E+02   1.127E+02  4.199E-01 
3.212E+02   1.132E+02  4.160E-01 
3.254E+02   1.137E+02  4.122E-01 
3.296E+02   1.142E+02  4.083E-01 
3.339E+02   1.146E+02  4.046E-01 
3.382E+02   1.151E+02  4.008E-01 
3.426E+02   1.156E+02  3.971E-01 
3.471E+02   1.161E+02  3.934E-01 
3.516E+02   1.165E+02  3.897E-01 
3.561E+02   1.170E+02  3.861E-01 
3.608E+02   1.175E+02  3.825E-01 
3.655E+02   1.179E+02  3.789E-01 
3.702E+02   1.184E+02  3.754E-01 
3.750E+02   1.188E+02  3.719E-01 
3.799E+02   1.192E+02  3.684E-01 
3.848E+02   1.197E+02  3.649E-01 
3.898E+02   1.201E+02  3.615E-01 
3.949E+02   1.205E+02  3.581E-01 
4.000E+02   1.209E+02  3.547E-01 
4.052E+02   1.214E+02  3.513E-01 
4.105E+02   1.218E+02  3.480E-01 
4.158E+02   1.222E+02  3.447E-01 
4.212E+02   1.225E+02  3.415E-01 
4.267E+02   1.229E+02  3.382E-01 
4.323E+02   1.233E+02  3.350E-01 
4.379E+02   1.237E+02  3.318E-01 
4.436E+02   1.240E+02  3.287E-01 
4.493E+02   1.244E+02  3.255E-01 
4.552E+02   1.247E+02  3.224E-01 
4.611E+02   1.251E+02  3.193E-01 
4.671E+02   1.254E+02  3.163E-01 
4.731E+02   1.257E+02  3.132E-01 
4.793E+02   1.260E+02  3.102E-01 
4.855E+02   1.263E+02  3.073E-01 
4.918E+02   1.266E+02  3.043E-01 
4.982E+02   1.269E+02  3.014E-01 
5.047E+02   1.271E+02  2.985E-01 
5.113E+02   1.274E+02  2.956E-01 
5.179E+02   1.276E+02  2.927E-01 
5.246E+02   1.279E+02  2.899E-01 
5.315E+02   1.281E+02  2.871E-01 
5.384E+02   1.283E+02  2.843E-01 
5.454E+02   1.285E+02  2.816E-01 
5.524E+02   1.287E+02  2.788E-01 
5.596E+02   1.289E+02  2.761E-01 
5.669E+02   1.291E+02  2.735E-01 
5.743E+02   1.292E+02  2.708E-01 
5.817E+02   1.294E+02  2.682E-01 
5.893E+02   1.295E+02  2.655E-01 
5.969E+02   1.296E+02  2.629E-01 
6.047E+02   1.298E+02  2.604E-01 
6.126E+02   1.299E+02  2.578E-01 
6.205E+02   1.299E+02  2.553E-01 
6.286E+02   1.300E+02  2.528E-01 
6.368E+02   1.301E+02  2.503E-01 
6.450E+02   1.302E+02  2.479E-01 
6.534E+02   1.302E+02  2.454E-01 
6.619E+02   1.302E+02  2.430E-01 
6.705E+02   1.302E+02  2.406E-01 
6.792E+02   1.303E+02  2.383E-01 
6.881E+02   1.302E+02  2.359E-01 
6.970E+02   1.302E+02  2.336E-01 
7.061E+02   1.302E+02  2.313E-01 
7.152E+02   1.302E+02  2.290E-01 
7.245E+02   1.301E+02  2.267E-01 
7.339E+02   1.300E+02  2.245E-01 
7.435E+02   1.300E+02  2.222E-01 
7.531E+02   1.299E+02  2.200E-01 
7.629E+02   1.298E+02  2.179E-01 
7.728E+02   1.297E+02  2.157E-01 
7.829E+02   1.295E+02  2.135E-01 
7.931E+02   1.294E+02  2.114E-01 
8.034E+02   1.293E+02  2.093E-01 
8.138E+02   1.291E+02  2.072E-01 
8.244E+02   1.289E+02  2.052E-01 
8.351E+02   1.288E+02  2.031E-01 
8.460E+02   1.286E+02  2.011E-01 
8.570E+02   1.284E+02  1.991E-01 
8.681E+02   1.281E+02  1.971E-01 
8.794E+02   1.279E+02  1.951E-01 
8.908E+02   1.277E+02  1.931E-01 
9.024E+02   1.274E+02  1.912E-01 
9.141E+02   1.272E+02  1.893E-01 
9.260E+02   1.269E+02  1.874E-01 
9.380E+02   1.266E+02  1.855E-01 
9.502E+02   1.263E+02  1.836E-01 
9.626E+02   1.260E+02  1.818E-01 
9.751E+02   1.257E+02  1.799E-01 
9.877E+02   1.254E+02  1.781E-01 
1.001E+03   1.251E+02  1.763E-01 
1.014E+03   1.247E+02  1.745E-01 
1.027E+03   1.244E+02  1.728E-01 
1.040E+03   1.240E+02  1.710E-01 
1.054E+03   1.237E+02  1.693E-01 
1.067E+03   1.233E+02  1.676E-01 
1.081E+03   1.229E+02  1.659E-01 
1.095E+03   1.225E+02  1.642E-01 
1.109E+03   1.221E+02  1.625E-01 
1.124E+03   1.217E+02  1.609E-01 
1.138E+03   1.213E+02  1.592E-01 
1.153E+03   1.209E+02  1.576E-01 
1.168E+03   1.205E+02  1.560E-01 
1.183E+03   1.200E+02  1.544E-01 
1.199E+03   1.196E+02  1.528E-01 
1.214E+03   1.191E+02  1.513E-01 
1.230E+03   1.187E+02  1.497E-01 
1.246E+03   1.182E+02  1.482E-01 
1.262E+03   1.177E+02  1.467E-01 
1.279E+03   1.172E+02  1.452E-01 
1.295E+03   1.167E+02  1.437E-01 
1.312E+03   1.163E+02  1.422E-01 
1.329E+03   1.158E+02  1.408E-01 
1.347E+03   1.153E+02  1.393E-01 
1.364E+03   1.147E+02  1.379E-01 
1.382E+03   1.142E+02  1.365E-01 
1.400E+03   1.137E+02  1.351E-01 
1.418E+03   1.132E+02  1.337E-01 
1.436E+03   1.127E+02  1.323E-01 
1.455E+03   1.121E+02  1.309E-01 
1.474E+03   1.116E+02  1.296E-01 
1.493E+03   1.110E+02  1.283E-01 
1.513E+03   1.105E+02  1.269E-01 
1.532E+03   1.099E+02  1.256E-01 
1.552E+03   1.094E+02  1.243E-01 
1.572E+03   1.088E+02  1.230E-01 
1.593E+03   1.083E+02  1.218E-01 
1.613E+03   1.077E+02  1.205E-01 
1.634E+03   1.071E+02  1.193E-01 
1.656E+03   1.066E+02  1.180E-01 
1.677E+03   1.060E+02  1.168E-01 
1.699E+03   1.054E+02  1.156E-01 
1.721E+03   1.048E+02  1.144E-01 
1.743E+03   1.042E+02  1.132E-01 
1.766E+03   1.037E+02  1.120E-01 
1.789E+03   1.031E+02  1.109E-01 
1.812E+03   1.025E+02  1.097E-01 
1.836E+03   1.019E+02  1.086E-01 
1.860E+03   1.013E+02  1.074E-01 
