Ion = Hydrogen    . Mass = 1.0079
Tgt = Rh (Solid). Density = 12.399 g/cm3
Stopping Units =  eV/(1E15 atoms/cm2)
Energy(keV)  S(Elec)    S(Nuc)
1.000E+00   4.376E+00  3.594E-01 
1.012E+00   4.401E+00  3.596E-01 
1.023E+00   4.426E+00  3.597E-01 
1.035E+00   4.452E+00  3.599E-01 
1.047E+00   4.478E+00  3.600E-01 
1.059E+00   4.504E+00  3.602E-01 
1.072E+00   4.530E+00  3.603E-01 
1.084E+00   4.556E+00  3.604E-01 
1.097E+00   4.582E+00  3.605E-01 
1.109E+00   4.609E+00  3.607E-01 
1.122E+00   4.635E+00  3.608E-01 
1.135E+00   4.662E+00  3.609E-01 
1.148E+00   4.689E+00  3.610E-01 
1.162E+00   4.716E+00  3.610E-01 
1.175E+00   4.743E+00  3.611E-01 
1.189E+00   4.771E+00  3.612E-01 
1.203E+00   4.798E+00  3.613E-01 
1.217E+00   4.826E+00  3.613E-01 
1.231E+00   4.854E+00  3.614E-01 
1.245E+00   4.882E+00  3.614E-01 
1.259E+00   4.910E+00  3.615E-01 
1.274E+00   4.939E+00  3.615E-01 
1.289E+00   4.967E+00  3.615E-01 
1.304E+00   4.996E+00  3.616E-01 
1.319E+00   5.025E+00  3.616E-01 
1.334E+00   5.054E+00  3.616E-01 
1.350E+00   5.083E+00  3.616E-01 
1.365E+00   5.113E+00  3.616E-01 
1.381E+00   5.142E+00  3.616E-01 
1.397E+00   5.172E+00  3.616E-01 
1.413E+00   5.202E+00  3.615E-01 
1.430E+00   5.232E+00  3.615E-01 
1.446E+00   5.262E+00  3.615E-01 
1.463E+00   5.293E+00  3.614E-01 
1.480E+00   5.323E+00  3.614E-01 
1.497E+00   5.354E+00  3.613E-01 
1.515E+00   5.385E+00  3.612E-01 
1.532E+00   5.416E+00  3.612E-01 
1.550E+00   5.448E+00  3.611E-01 
1.568E+00   5.479E+00  3.610E-01 
1.586E+00   5.511E+00  3.609E-01 
1.605E+00   5.543E+00  3.608E-01 
1.623E+00   5.575E+00  3.607E-01 
1.642E+00   5.607E+00  3.606E-01 
1.661E+00   5.639E+00  3.604E-01 
1.680E+00   5.672E+00  3.603E-01 
1.700E+00   5.705E+00  3.602E-01 
1.719E+00   5.738E+00  3.600E-01 
1.739E+00   5.771E+00  3.599E-01 
1.760E+00   5.804E+00  3.597E-01 
1.780E+00   5.838E+00  3.596E-01 
1.801E+00   5.872E+00  3.594E-01 
1.822E+00   5.906E+00  3.592E-01 
1.843E+00   5.940E+00  3.590E-01 
1.864E+00   5.974E+00  3.588E-01 
1.886E+00   6.009E+00  3.586E-01 
1.908E+00   6.043E+00  3.584E-01 
1.930E+00   6.078E+00  3.582E-01 
1.952E+00   6.113E+00  3.580E-01 
1.975E+00   6.149E+00  3.577E-01 
1.998E+00   6.184E+00  3.575E-01 
2.021E+00   6.219E+00  3.573E-01 
2.044E+00   6.250E+00  3.570E-01 
2.068E+00   6.282E+00  3.568E-01 
2.092E+00   6.313E+00  3.565E-01 
2.116E+00   6.345E+00  3.562E-01 
2.141E+00   6.377E+00  3.559E-01 
2.166E+00   6.410E+00  3.556E-01 
2.191E+00   6.442E+00  3.553E-01 
2.216E+00   6.475E+00  3.550E-01 
2.242E+00   6.508E+00  3.547E-01 
2.268E+00   6.542E+00  3.544E-01 
2.294E+00   6.575E+00  3.541E-01 
2.321E+00   6.609E+00  3.538E-01 
2.348E+00   6.643E+00  3.534E-01 
2.375E+00   6.677E+00  3.531E-01 
2.402E+00   6.712E+00  3.527E-01 
2.430E+00   6.747E+00  3.523E-01 
2.458E+00   6.782E+00  3.520E-01 
2.487E+00   6.817E+00  3.516E-01 
2.516E+00   6.853E+00  3.512E-01 
2.545E+00   6.888E+00  3.508E-01 
2.574E+00   6.924E+00  3.504E-01 
2.604E+00   6.961E+00  3.500E-01 
2.635E+00   6.997E+00  3.496E-01 
2.665E+00   7.034E+00  3.492E-01 
2.696E+00   7.071E+00  3.488E-01 
2.727E+00   7.108E+00  3.483E-01 
2.759E+00   7.146E+00  3.479E-01 
2.791E+00   7.184E+00  3.474E-01 
2.823E+00   7.222E+00  3.470E-01 
2.856E+00   7.260E+00  3.465E-01 
2.889E+00   7.299E+00  3.460E-01 
2.923E+00   7.337E+00  3.456E-01 
2.957E+00   7.377E+00  3.451E-01 
2.991E+00   7.416E+00  3.446E-01 
3.026E+00   7.455E+00  3.441E-01 
3.061E+00   7.495E+00  3.436E-01 
3.096E+00   7.535E+00  3.430E-01 
3.132E+00   7.575E+00  3.425E-01 
3.168E+00   7.616E+00  3.420E-01 
3.205E+00   7.657E+00  3.415E-01 
3.242E+00   7.698E+00  3.409E-01 
3.280E+00   7.739E+00  3.404E-01 
3.318E+00   7.780E+00  3.398E-01 
3.356E+00   7.822E+00  3.392E-01 
3.395E+00   7.864E+00  3.387E-01 
3.435E+00   7.906E+00  3.381E-01 
3.475E+00   7.949E+00  3.375E-01 
3.515E+00   7.991E+00  3.369E-01 
3.556E+00   8.034E+00  3.363E-01 
3.597E+00   8.077E+00  3.357E-01 
3.639E+00   8.120E+00  3.351E-01 
3.681E+00   8.164E+00  3.345E-01 
3.724E+00   8.208E+00  3.338E-01 
3.767E+00   8.251E+00  3.332E-01 
3.810E+00   8.296E+00  3.326E-01 
3.855E+00   8.340E+00  3.319E-01 
3.899E+00   8.384E+00  3.313E-01 
3.945E+00   8.429E+00  3.306E-01 
3.990E+00   8.474E+00  3.299E-01 
4.037E+00   8.519E+00  3.292E-01 
4.083E+00   8.565E+00  3.286E-01 
4.131E+00   8.610E+00  3.279E-01 
4.179E+00   8.656E+00  3.272E-01 
4.227E+00   8.702E+00  3.265E-01 
4.276E+00   8.748E+00  3.258E-01 
4.326E+00   8.794E+00  3.251E-01 
4.376E+00   8.840E+00  3.243E-01 
4.427E+00   8.887E+00  3.236E-01 
4.478E+00   8.934E+00  3.229E-01 
4.530E+00   8.981E+00  3.221E-01 
4.583E+00   9.028E+00  3.214E-01 
4.636E+00   9.075E+00  3.206E-01 
4.690E+00   9.123E+00  3.199E-01 
4.744E+00   9.171E+00  3.191E-01 
4.799E+00   9.219E+00  3.183E-01 
4.855E+00   9.267E+00  3.176E-01 
4.911E+00   9.315E+00  3.168E-01 
4.968E+00   9.363E+00  3.160E-01 
5.026E+00   9.412E+00  3.152E-01 
5.084E+00   9.461E+00  3.144E-01 
5.143E+00   9.510E+00  3.136E-01 
5.202E+00   9.559E+00  3.128E-01 
5.263E+00   9.609E+00  3.120E-01 
5.324E+00   9.658E+00  3.111E-01 
5.386E+00   9.708E+00  3.103E-01 
5.448E+00   9.758E+00  3.095E-01 
5.511E+00   9.809E+00  3.086E-01 
5.575E+00   9.859E+00  3.078E-01 
5.640E+00   9.910E+00  3.069E-01 
5.705E+00   9.961E+00  3.061E-01 
5.771E+00   1.001E+01  3.052E-01 
5.838E+00   1.006E+01  3.044E-01 
5.906E+00   1.012E+01  3.035E-01 
5.975E+00   1.017E+01  3.026E-01 
6.044E+00   1.022E+01  3.017E-01 
6.114E+00   1.027E+01  3.008E-01 
6.185E+00   1.033E+01  2.999E-01 
6.257E+00   1.038E+01  2.990E-01 
6.329E+00   1.044E+01  2.981E-01 
6.403E+00   1.049E+01  2.972E-01 
6.477E+00   1.055E+01  2.963E-01 
6.552E+00   1.060E+01  2.954E-01 
6.628E+00   1.066E+01  2.945E-01 
6.705E+00   1.071E+01  2.936E-01 
6.783E+00   1.077E+01  2.926E-01 
6.861E+00   1.083E+01  2.917E-01 
6.941E+00   1.088E+01  2.908E-01 
7.021E+00   1.094E+01  2.898E-01 
7.103E+00   1.100E+01  2.889E-01 
7.185E+00   1.106E+01  2.879E-01 
7.269E+00   1.112E+01  2.870E-01 
7.353E+00   1.118E+01  2.860E-01 
7.438E+00   1.124E+01  2.850E-01 
7.524E+00   1.131E+01  2.841E-01 
7.612E+00   1.137E+01  2.831E-01 
7.700E+00   1.143E+01  2.821E-01 
7.789E+00   1.150E+01  2.811E-01 
7.880E+00   1.156E+01  2.802E-01 
7.971E+00   1.163E+01  2.792E-01 
8.064E+00   1.170E+01  2.782E-01 
8.157E+00   1.176E+01  2.772E-01 
8.252E+00   1.183E+01  2.762E-01 
8.347E+00   1.190E+01  2.752E-01 
8.444E+00   1.197E+01  2.742E-01 
8.542E+00   1.204E+01  2.732E-01 
8.641E+00   1.211E+01  2.722E-01 
8.741E+00   1.219E+01  2.712E-01 
8.843E+00   1.226E+01  2.701E-01 
8.945E+00   1.233E+01  2.691E-01 
9.049E+00   1.241E+01  2.681E-01 
9.154E+00   1.249E+01  2.671E-01 
9.260E+00   1.256E+01  2.660E-01 
9.368E+00   1.264E+01  2.650E-01 
9.476E+00   1.272E+01  2.640E-01 
9.586E+00   1.280E+01  2.629E-01 
9.698E+00   1.288E+01  2.619E-01 
9.810E+00   1.296E+01  2.609E-01 
9.924E+00   1.305E+01  2.598E-01 
1.004E+01   1.313E+01  2.588E-01 
1.016E+01   1.322E+01  2.577E-01 
1.027E+01   1.330E+01  2.567E-01 
1.039E+01   1.339E+01  2.556E-01 
1.051E+01   1.348E+01  2.546E-01 
1.063E+01   1.357E+01  2.535E-01 
1.076E+01   1.366E+01  2.525E-01 
1.088E+01   1.375E+01  2.514E-01 
1.101E+01   1.384E+01  2.503E-01 
1.114E+01   1.393E+01  2.493E-01 
1.127E+01   1.403E+01  2.482E-01 
1.140E+01   1.412E+01  2.472E-01 
1.153E+01   1.422E+01  2.461E-01 
1.166E+01   1.432E+01  2.450E-01 
1.180E+01   1.442E+01  2.439E-01 
1.193E+01   1.452E+01  2.429E-01 
1.207E+01   1.462E+01  2.418E-01 
1.221E+01   1.472E+01  2.407E-01 
1.235E+01   1.482E+01  2.397E-01 
1.250E+01   1.493E+01  2.386E-01 
1.264E+01   1.503E+01  2.375E-01 
1.279E+01   1.514E+01  2.364E-01 
1.294E+01   1.524E+01  2.354E-01 
1.309E+01   1.535E+01  2.343E-01 
1.324E+01   1.546E+01  2.332E-01 
1.339E+01   1.557E+01  2.321E-01 
1.355E+01   1.568E+01  2.310E-01 
1.371E+01   1.579E+01  2.300E-01 
1.387E+01   1.591E+01  2.289E-01 
1.403E+01   1.602E+01  2.278E-01 
1.419E+01   1.614E+01  2.267E-01 
1.435E+01   1.625E+01  2.256E-01 
1.452E+01   1.637E+01  2.246E-01 
1.469E+01   1.649E+01  2.235E-01 
1.486E+01   1.661E+01  2.224E-01 
1.503E+01   1.673E+01  2.213E-01 
1.521E+01   1.685E+01  2.202E-01 
1.538E+01   1.697E+01  2.191E-01 
1.556E+01   1.709E+01  2.181E-01 
1.574E+01   1.722E+01  2.170E-01 
1.592E+01   1.734E+01  2.159E-01 
1.611E+01   1.747E+01  2.148E-01 
1.629E+01   1.760E+01  2.137E-01 
1.648E+01   1.772E+01  2.127E-01 
1.667E+01   1.785E+01  2.116E-01 
1.687E+01   1.798E+01  2.105E-01 
1.706E+01   1.811E+01  2.094E-01 
1.726E+01   1.825E+01  2.084E-01 
1.746E+01   1.838E+01  2.073E-01 
1.766E+01   1.851E+01  2.062E-01 
1.787E+01   1.865E+01  2.051E-01 
1.808E+01   1.878E+01  2.041E-01 
1.829E+01   1.892E+01  2.030E-01 
1.850E+01   1.906E+01  2.019E-01 
1.871E+01   1.919E+01  2.009E-01 
1.893E+01   1.933E+01  1.998E-01 
1.915E+01   1.947E+01  1.987E-01 
1.937E+01   1.961E+01  1.977E-01 
1.960E+01   1.976E+01  1.966E-01 
1.982E+01   1.990E+01  1.955E-01 
2.005E+01   2.004E+01  1.945E-01 
2.029E+01   2.019E+01  1.934E-01 
2.052E+01   2.033E+01  1.924E-01 
2.076E+01   2.048E+01  1.913E-01 
2.100E+01   2.062E+01  1.902E-01 
2.124E+01   2.077E+01  1.892E-01 
2.149E+01   2.092E+01  1.881E-01 
2.174E+01   2.107E+01  1.871E-01 
2.199E+01   2.122E+01  1.861E-01 
2.225E+01   2.137E+01  1.850E-01 
2.250E+01   2.152E+01  1.840E-01 
2.277E+01   2.167E+01  1.829E-01 
2.303E+01   2.183E+01  1.819E-01 
2.330E+01   2.198E+01  1.809E-01 
2.357E+01   2.213E+01  1.798E-01 
2.384E+01   2.229E+01  1.788E-01 
2.412E+01   2.245E+01  1.778E-01 
2.440E+01   2.260E+01  1.767E-01 
2.468E+01   2.276E+01  1.757E-01 
2.497E+01   2.292E+01  1.747E-01 
2.526E+01   2.307E+01  1.737E-01 
2.555E+01   2.323E+01  1.726E-01 
2.584E+01   2.339E+01  1.716E-01 
2.614E+01   2.355E+01  1.706E-01 
2.645E+01   2.371E+01  1.696E-01 
2.675E+01   2.387E+01  1.686E-01 
2.707E+01   2.404E+01  1.676E-01 
2.738E+01   2.420E+01  1.666E-01 
2.770E+01   2.436E+01  1.656E-01 
2.802E+01   2.452E+01  1.646E-01 
2.834E+01   2.469E+01  1.636E-01 
2.867E+01   2.485E+01  1.626E-01 
2.900E+01   2.502E+01  1.616E-01 
2.934E+01   2.518E+01  1.606E-01 
2.968E+01   2.535E+01  1.597E-01 
3.003E+01   2.551E+01  1.587E-01 
3.037E+01   2.568E+01  1.577E-01 
3.073E+01   2.584E+01  1.567E-01 
3.108E+01   2.601E+01  1.558E-01 
3.144E+01   2.617E+01  1.548E-01 
3.181E+01   2.634E+01  1.538E-01 
3.218E+01   2.651E+01  1.529E-01 
3.255E+01   2.667E+01  1.519E-01 
3.293E+01   2.684E+01  1.510E-01 
3.331E+01   2.701E+01  1.500E-01 
3.370E+01   2.718E+01  1.491E-01 
3.409E+01   2.734E+01  1.481E-01 
3.448E+01   2.751E+01  1.472E-01 
3.488E+01   2.768E+01  1.462E-01 
3.529E+01   2.784E+01  1.453E-01 
3.570E+01   2.801E+01  1.444E-01 
3.611E+01   2.818E+01  1.434E-01 
3.653E+01   2.834E+01  1.425E-01 
3.695E+01   2.851E+01  1.416E-01 
3.738E+01   2.868E+01  1.407E-01 
3.781E+01   2.884E+01  1.398E-01 
3.825E+01   2.901E+01  1.389E-01 
3.870E+01   2.917E+01  1.379E-01 
3.915E+01   2.934E+01  1.370E-01 
3.960E+01   2.950E+01  1.361E-01 
4.006E+01   2.967E+01  1.352E-01 
4.052E+01   2.983E+01  1.344E-01 
4.099E+01   3.000E+01  1.335E-01 
4.147E+01   3.016E+01  1.326E-01 
4.195E+01   3.032E+01  1.317E-01 
4.244E+01   3.048E+01  1.308E-01 
4.293E+01   3.064E+01  1.299E-01 
4.343E+01   3.080E+01  1.291E-01 
4.393E+01   3.096E+01  1.282E-01 
4.444E+01   3.112E+01  1.273E-01 
4.496E+01   3.128E+01  1.265E-01 
4.548E+01   3.144E+01  1.256E-01 
4.600E+01   3.160E+01  1.248E-01 
4.654E+01   3.175E+01  1.239E-01 
4.708E+01   3.191E+01  1.231E-01 
4.762E+01   3.206E+01  1.222E-01 
4.818E+01   3.221E+01  1.214E-01 
4.873E+01   3.236E+01  1.206E-01 
4.930E+01   3.252E+01  1.197E-01 
4.987E+01   3.266E+01  1.189E-01 
5.045E+01   3.281E+01  1.181E-01 
5.104E+01   3.296E+01  1.173E-01 
5.163E+01   3.311E+01  1.165E-01 
5.223E+01   3.325E+01  1.156E-01 
5.283E+01   3.339E+01  1.148E-01 
5.344E+01   3.354E+01  1.140E-01 
5.406E+01   3.368E+01  1.132E-01 
5.469E+01   3.382E+01  1.124E-01 
5.533E+01   3.395E+01  1.117E-01 
5.597E+01   3.409E+01  1.109E-01 
5.662E+01   3.422E+01  1.101E-01 
5.727E+01   3.436E+01  1.093E-01 
5.794E+01   3.449E+01  1.085E-01 
5.861E+01   3.462E+01  1.078E-01 
5.929E+01   3.475E+01  1.070E-01 
5.998E+01   3.487E+01  1.062E-01 
6.067E+01   3.500E+01  1.055E-01 
6.138E+01   3.512E+01  1.047E-01 
6.209E+01   3.524E+01  1.040E-01 
6.281E+01   3.536E+01  1.032E-01 
6.354E+01   3.548E+01  1.025E-01 
6.427E+01   3.559E+01  1.017E-01 
6.502E+01   3.570E+01  1.010E-01 
6.577E+01   3.581E+01  1.002E-01 
6.654E+01   3.592E+01  9.952E-02 
6.731E+01   3.603E+01  9.880E-02 
6.809E+01   3.613E+01  9.807E-02 
6.888E+01   3.624E+01  9.736E-02 
6.968E+01   3.634E+01  9.664E-02 
7.049E+01   3.644E+01  9.593E-02 
7.130E+01   3.653E+01  9.523E-02 
7.213E+01   3.662E+01  9.453E-02 
7.297E+01   3.672E+01  9.383E-02 
7.381E+01   3.680E+01  9.314E-02 
7.467E+01   3.689E+01  9.245E-02 
7.554E+01   3.698E+01  9.176E-02 
7.641E+01   3.706E+01  9.108E-02 
7.730E+01   3.714E+01  9.040E-02 
7.820E+01   3.721E+01  8.973E-02 
7.910E+01   3.729E+01  8.905E-02 
8.002E+01   3.736E+01  8.839E-02 
8.095E+01   3.743E+01  8.772E-02 
8.189E+01   3.750E+01  8.707E-02 
8.284E+01   3.756E+01  8.641E-02 
8.380E+01   3.762E+01  8.576E-02 
8.477E+01   3.768E+01  8.511E-02 
8.575E+01   3.774E+01  8.447E-02 
8.675E+01   3.779E+01  8.383E-02 
8.775E+01   3.784E+01  8.319E-02 
8.877E+01   3.789E+01  8.256E-02 
8.980E+01   3.793E+01  8.193E-02 
9.084E+01   3.798E+01  8.131E-02 
9.190E+01   3.802E+01  8.068E-02 
9.296E+01   3.806E+01  8.007E-02 
9.404E+01   3.809E+01  7.945E-02 
9.513E+01   3.812E+01  7.884E-02 
9.624E+01   3.815E+01  7.824E-02 
9.735E+01   3.818E+01  7.763E-02 
9.848E+01   3.820E+01  7.704E-02 
9.962E+01   3.822E+01  7.644E-02 
1.008E+02   3.824E+01  7.585E-02 
1.019E+02   3.826E+01  7.526E-02 
1.031E+02   3.827E+01  7.468E-02 
1.043E+02   3.828E+01  7.410E-02 
1.055E+02   3.829E+01  7.352E-02 
1.068E+02   3.829E+01  7.295E-02 
1.080E+02   3.830E+01  7.238E-02 
1.093E+02   3.830E+01  7.181E-02 
1.105E+02   3.829E+01  7.125E-02 
1.118E+02   3.829E+01  7.069E-02 
1.131E+02   3.828E+01  7.014E-02 
1.144E+02   3.827E+01  6.959E-02 
1.157E+02   3.825E+01  6.904E-02 
1.171E+02   3.824E+01  6.849E-02 
1.184E+02   3.822E+01  6.795E-02 
1.198E+02   3.819E+01  6.741E-02 
1.212E+02   3.817E+01  6.688E-02 
1.226E+02   3.814E+01  6.635E-02 
1.240E+02   3.811E+01  6.582E-02 
1.255E+02   3.808E+01  6.530E-02 
1.269E+02   3.804E+01  6.478E-02 
1.284E+02   3.801E+01  6.426E-02 
1.299E+02   3.797E+01  6.375E-02 
1.314E+02   3.792E+01  6.324E-02 
1.329E+02   3.788E+01  6.273E-02 
1.345E+02   3.783E+01  6.223E-02 
1.360E+02   3.778E+01  6.173E-02 
1.376E+02   3.773E+01  6.124E-02 
1.392E+02   3.767E+01  6.074E-02 
1.408E+02   3.762E+01  6.025E-02 
1.424E+02   3.756E+01  5.977E-02 
1.441E+02   3.750E+01  6.109E-02 
1.458E+02   3.743E+01  6.059E-02 
1.475E+02   3.737E+01  6.010E-02 
1.492E+02   3.730E+01  5.961E-02 
1.509E+02   3.723E+01  5.912E-02 
1.526E+02   3.715E+01  5.864E-02 
1.544E+02   3.708E+01  5.816E-02 
1.562E+02   3.700E+01  5.769E-02 
1.580E+02   3.692E+01  5.721E-02 
1.598E+02   3.684E+01  5.674E-02 
1.617E+02   3.676E+01  5.628E-02 
1.636E+02   3.667E+01  5.581E-02 
1.655E+02   3.658E+01  5.535E-02 
1.674E+02   3.649E+01  5.489E-02 
1.693E+02   3.640E+01  5.444E-02 
1.713E+02   3.631E+01  5.399E-02 
1.733E+02   3.621E+01  5.354E-02 
1.753E+02   3.612E+01  5.310E-02 
1.773E+02   3.602E+01  5.266E-02 
1.794E+02   3.592E+01  5.222E-02 
1.815E+02   3.582E+01  5.179E-02 
1.836E+02   3.571E+01  5.135E-02 
1.857E+02   3.561E+01  5.092E-02 
1.879E+02   3.550E+01  5.050E-02 
1.900E+02   3.539E+01  5.008E-02 
1.922E+02   3.528E+01  4.966E-02 
1.945E+02   3.517E+01  4.924E-02 
1.967E+02   3.505E+01  4.883E-02 
1.990E+02   3.494E+01  4.842E-02 
2.013E+02   3.482E+01  4.801E-02 
2.036E+02   3.471E+01  4.761E-02 
2.060E+02   3.459E+01  4.720E-02 
2.084E+02   3.447E+01  4.681E-02 
2.108E+02   3.434E+01  4.641E-02 
2.133E+02   3.422E+01  4.602E-02 
2.157E+02   3.410E+01  4.563E-02 
2.182E+02   3.397E+01  4.524E-02 
2.208E+02   3.385E+01  4.486E-02 
2.233E+02   3.372E+01  4.448E-02 
2.259E+02   3.359E+01  4.410E-02 
2.285E+02   3.346E+01  4.372E-02 
2.312E+02   3.333E+01  4.335E-02 
2.339E+02   3.320E+01  4.298E-02 
2.366E+02   3.306E+01  4.261E-02 
2.393E+02   3.293E+01  4.225E-02 
2.421E+02   3.280E+01  4.189E-02 
2.449E+02   3.266E+01  4.153E-02 
2.478E+02   3.252E+01  4.117E-02 
2.506E+02   3.239E+01  4.082E-02 
2.535E+02   3.225E+01  4.047E-02 
2.565E+02   3.211E+01  4.012E-02 
2.595E+02   3.197E+01  3.977E-02 
2.625E+02   3.183E+01  3.943E-02 
2.655E+02   3.169E+01  3.909E-02 
2.686E+02   3.155E+01  3.875E-02 
2.717E+02   3.140E+01  3.842E-02 
2.749E+02   3.126E+01  3.809E-02 
2.780E+02   3.112E+01  3.776E-02 
2.813E+02   3.097E+01  3.743E-02 
2.845E+02   3.083E+01  3.711E-02 
2.878E+02   3.068E+01  3.678E-02 
2.912E+02   3.054E+01  3.646E-02 
2.945E+02   3.039E+01  3.615E-02 
2.980E+02   3.025E+01  3.583E-02 
3.014E+02   3.010E+01  3.552E-02 
3.049E+02   2.995E+01  3.521E-02 
3.085E+02   2.981E+01  3.490E-02 
3.120E+02   2.966E+01  3.460E-02 
3.156E+02   2.951E+01  3.430E-02 
3.193E+02   2.936E+01  3.400E-02 
3.230E+02   2.921E+01  3.370E-02 
3.268E+02   2.907E+01  3.340E-02 
3.306E+02   2.892E+01  3.311E-02 
3.344E+02   2.877E+01  3.282E-02 
3.383E+02   2.862E+01  3.253E-02 
3.422E+02   2.847E+01  3.224E-02 
3.462E+02   2.832E+01  3.196E-02 
3.502E+02   2.817E+01  3.168E-02 
3.542E+02   2.802E+01  3.140E-02 
3.583E+02   2.787E+01  3.112E-02 
3.625E+02   2.772E+01  3.085E-02 
3.667E+02   2.757E+01  3.058E-02 
3.710E+02   2.742E+01  3.030E-02 
3.753E+02   2.727E+01  3.004E-02 
3.796E+02   2.712E+01  2.977E-02 
3.840E+02   2.698E+01  2.951E-02 
3.885E+02   2.683E+01  2.924E-02 
3.930E+02   2.668E+01  2.899E-02 
3.975E+02   2.653E+01  2.873E-02 
4.021E+02   2.638E+01  2.847E-02 
4.068E+02   2.623E+01  2.822E-02 
4.115E+02   2.608E+01  2.797E-02 
4.163E+02   2.593E+01  2.772E-02 
4.211E+02   2.578E+01  2.747E-02 
4.260E+02   2.564E+01  2.723E-02 
4.310E+02   2.549E+01  2.698E-02 
4.360E+02   2.534E+01  2.674E-02 
4.410E+02   2.519E+01  2.650E-02 
4.461E+02   2.505E+01  2.627E-02 
4.513E+02   2.490E+01  2.603E-02 
4.565E+02   2.475E+01  2.580E-02 
4.618E+02   2.461E+01  2.557E-02 
4.672E+02   2.446E+01  2.534E-02 
4.726E+02   2.431E+01  2.511E-02 
4.781E+02   2.417E+01  2.488E-02 
4.836E+02   2.402E+01  2.466E-02 
4.892E+02   2.388E+01  2.444E-02 
4.949E+02   2.374E+01  2.422E-02 
5.007E+02   2.359E+01  2.400E-02 
5.065E+02   2.345E+01  2.378E-02 
5.123E+02   2.330E+01  2.357E-02 
5.183E+02   2.316E+01  2.335E-02 
5.243E+02   2.302E+01  2.314E-02 
5.304E+02   2.288E+01  2.293E-02 
5.365E+02   2.274E+01  2.273E-02 
5.428E+02   2.260E+01  2.252E-02 
5.490E+02   2.245E+01  2.232E-02 
5.554E+02   2.231E+01  2.211E-02 
5.619E+02   2.217E+01  2.191E-02 
5.684E+02   2.204E+01  2.172E-02 
5.750E+02   2.190E+01  2.152E-02 
5.816E+02   2.176E+01  2.132E-02 
5.884E+02   2.162E+01  2.113E-02 
5.952E+02   2.148E+01  2.094E-02 
6.021E+02   2.135E+01  2.075E-02 
6.091E+02   2.121E+01  2.056E-02 
6.162E+02   2.107E+01  2.037E-02 
6.233E+02   2.094E+01  2.018E-02 
6.305E+02   2.080E+01  2.000E-02 
6.378E+02   2.067E+01  1.982E-02 
6.452E+02   2.054E+01  1.964E-02 
6.527E+02   2.040E+01  1.946E-02 
6.603E+02   2.027E+01  1.928E-02 
6.680E+02   2.014E+01  1.910E-02 
6.757E+02   2.001E+01  1.893E-02 
6.835E+02   1.988E+01  1.875E-02 
6.915E+02   1.975E+01  1.858E-02 
6.995E+02   1.962E+01  1.841E-02 
7.076E+02   1.949E+01  1.824E-02 
7.158E+02   1.936E+01  1.807E-02 
7.241E+02   1.923E+01  1.791E-02 
7.325E+02   1.910E+01  1.774E-02 
7.410E+02   1.898E+01  1.758E-02 
7.496E+02   1.885E+01  1.742E-02 
7.583E+02   1.872E+01  1.726E-02 
7.671E+02   1.860E+01  1.710E-02 
7.760E+02   1.847E+01  1.694E-02 
7.850E+02   1.835E+01  1.678E-02 
7.941E+02   1.823E+01  1.663E-02 
8.033E+02   1.810E+01  1.648E-02 
8.126E+02   1.798E+01  1.632E-02 
8.221E+02   1.786E+01  1.617E-02 
8.316E+02   1.774E+01  1.602E-02 
