Ion = Hydrogen    . Mass = 1.0079
Tgt = Br (Solid). Density = 3.199 g/cm3
Stopping Units =  eV/(1E15 atoms/cm2)
Energy(keV)  S(Elec)    S(Nuc)
1.000E+00   5.116E+00  3.710E-01 
1.012E+00   5.146E+00  3.710E-01 
1.023E+00   5.175E+00  3.710E-01 
1.035E+00   5.205E+00  3.711E-01 
1.047E+00   5.235E+00  3.711E-01 
1.059E+00   5.266E+00  3.711E-01 
1.072E+00   5.296E+00  3.711E-01 
1.084E+00   5.327E+00  3.711E-01 
1.097E+00   5.358E+00  3.711E-01 
1.109E+00   5.389E+00  3.710E-01 
1.122E+00   5.420E+00  3.710E-01 
1.135E+00   5.451E+00  3.710E-01 
1.148E+00   5.483E+00  3.709E-01 
1.162E+00   5.514E+00  3.709E-01 
1.175E+00   5.546E+00  3.708E-01 
1.189E+00   5.578E+00  3.707E-01 
1.203E+00   5.611E+00  3.707E-01 
1.217E+00   5.643E+00  3.706E-01 
1.231E+00   5.676E+00  3.705E-01 
1.245E+00   5.708E+00  3.704E-01 
1.259E+00   5.741E+00  3.703E-01 
1.274E+00   5.775E+00  3.702E-01 
1.289E+00   5.808E+00  3.700E-01 
1.304E+00   5.842E+00  3.699E-01 
1.319E+00   5.875E+00  3.698E-01 
1.334E+00   5.909E+00  3.696E-01 
1.350E+00   5.944E+00  3.695E-01 
1.365E+00   5.978E+00  3.693E-01 
1.381E+00   6.013E+00  3.692E-01 
1.397E+00   6.047E+00  3.690E-01 
1.413E+00   6.082E+00  3.688E-01 
1.430E+00   6.117E+00  3.686E-01 
1.446E+00   6.153E+00  3.684E-01 
1.463E+00   6.188E+00  3.682E-01 
1.480E+00   6.224E+00  3.680E-01 
1.497E+00   6.260E+00  3.678E-01 
1.515E+00   6.296E+00  3.676E-01 
1.532E+00   6.333E+00  3.673E-01 
1.550E+00   6.369E+00  3.671E-01 
1.568E+00   6.406E+00  3.669E-01 
1.586E+00   6.443E+00  3.666E-01 
1.605E+00   6.481E+00  3.663E-01 
1.623E+00   6.518E+00  3.661E-01 
1.642E+00   6.556E+00  3.658E-01 
1.661E+00   6.594E+00  3.655E-01 
1.680E+00   6.632E+00  3.652E-01 
1.700E+00   6.670E+00  3.649E-01 
1.719E+00   6.709E+00  3.646E-01 
1.739E+00   6.747E+00  3.643E-01 
1.760E+00   6.787E+00  3.639E-01 
1.780E+00   6.826E+00  3.636E-01 
1.801E+00   6.865E+00  3.633E-01 
1.822E+00   6.905E+00  3.629E-01 
1.843E+00   6.945E+00  3.626E-01 
1.864E+00   6.985E+00  3.622E-01 
1.886E+00   7.025E+00  3.618E-01 
1.908E+00   7.066E+00  3.614E-01 
1.930E+00   7.107E+00  3.611E-01 
1.952E+00   7.148E+00  3.607E-01 
1.975E+00   7.189E+00  3.603E-01 
1.998E+00   7.231E+00  3.598E-01 
2.021E+00   7.272E+00  3.594E-01 
2.044E+00   7.310E+00  3.590E-01 
2.068E+00   7.348E+00  3.586E-01 
2.092E+00   7.386E+00  3.581E-01 
2.116E+00   7.425E+00  3.577E-01 
2.141E+00   7.464E+00  3.572E-01 
2.166E+00   7.503E+00  3.568E-01 
2.191E+00   7.542E+00  3.563E-01 
2.216E+00   7.582E+00  3.558E-01 
2.242E+00   7.622E+00  3.553E-01 
2.268E+00   7.662E+00  3.548E-01 
2.294E+00   7.702E+00  3.543E-01 
2.321E+00   7.743E+00  3.538E-01 
2.348E+00   7.784E+00  3.533E-01 
2.375E+00   7.825E+00  3.528E-01 
2.402E+00   7.866E+00  3.522E-01 
2.430E+00   7.908E+00  3.517E-01 
2.458E+00   7.950E+00  3.511E-01 
2.487E+00   7.992E+00  3.506E-01 
2.516E+00   8.035E+00  3.500E-01 
2.545E+00   8.078E+00  3.494E-01 
2.574E+00   8.121E+00  3.489E-01 
2.604E+00   8.164E+00  3.483E-01 
2.635E+00   8.208E+00  3.477E-01 
2.665E+00   8.252E+00  3.471E-01 
2.696E+00   8.296E+00  3.465E-01 
2.727E+00   8.341E+00  3.459E-01 
2.759E+00   8.385E+00  3.452E-01 
2.791E+00   8.430E+00  3.446E-01 
2.823E+00   8.476E+00  3.440E-01 
2.856E+00   8.521E+00  3.433E-01 
2.889E+00   8.567E+00  3.427E-01 
2.923E+00   8.614E+00  3.420E-01 
2.957E+00   8.660E+00  3.414E-01 
2.991E+00   8.707E+00  3.407E-01 
3.026E+00   8.754E+00  3.400E-01 
3.061E+00   8.802E+00  3.393E-01 
3.096E+00   8.850E+00  3.386E-01 
3.132E+00   8.898E+00  3.379E-01 
3.168E+00   8.946E+00  3.372E-01 
3.205E+00   8.995E+00  3.365E-01 
3.242E+00   9.044E+00  3.358E-01 
3.280E+00   9.093E+00  3.350E-01 
3.318E+00   9.143E+00  3.343E-01 
3.356E+00   9.193E+00  3.336E-01 
3.395E+00   9.243E+00  3.328E-01 
3.435E+00   9.294E+00  3.321E-01 
3.475E+00   9.345E+00  3.313E-01 
3.515E+00   9.396E+00  3.305E-01 
3.556E+00   9.448E+00  3.298E-01 
3.597E+00   9.499E+00  3.290E-01 
3.639E+00   9.552E+00  3.282E-01 
3.681E+00   9.604E+00  3.274E-01 
3.724E+00   9.657E+00  3.266E-01 
3.767E+00   9.711E+00  3.258E-01 
3.810E+00   9.764E+00  3.250E-01 
3.855E+00   9.818E+00  3.242E-01 
3.899E+00   9.873E+00  3.233E-01 
3.945E+00   9.927E+00  3.225E-01 
3.990E+00   9.982E+00  3.217E-01 
4.037E+00   1.004E+01  3.208E-01 
4.083E+00   1.009E+01  3.200E-01 
4.131E+00   1.015E+01  3.191E-01 
4.179E+00   1.021E+01  3.183E-01 
4.227E+00   1.026E+01  3.174E-01 
4.276E+00   1.032E+01  3.165E-01 
4.326E+00   1.038E+01  3.156E-01 
4.376E+00   1.044E+01  3.148E-01 
4.427E+00   1.049E+01  3.139E-01 
4.478E+00   1.055E+01  3.130E-01 
4.530E+00   1.061E+01  3.121E-01 
4.583E+00   1.067E+01  3.112E-01 
4.636E+00   1.073E+01  3.103E-01 
4.690E+00   1.079E+01  3.093E-01 
4.744E+00   1.085E+01  3.084E-01 
4.799E+00   1.091E+01  3.075E-01 
4.855E+00   1.097E+01  3.066E-01 
4.911E+00   1.104E+01  3.056E-01 
4.968E+00   1.110E+01  3.047E-01 
5.026E+00   1.116E+01  3.037E-01 
5.084E+00   1.122E+01  3.028E-01 
5.143E+00   1.129E+01  3.018E-01 
5.202E+00   1.135E+01  3.009E-01 
5.263E+00   1.142E+01  2.999E-01 
5.324E+00   1.148E+01  2.989E-01 
5.386E+00   1.155E+01  2.980E-01 
5.448E+00   1.161E+01  2.970E-01 
5.511E+00   1.168E+01  2.960E-01 
5.575E+00   1.174E+01  2.950E-01 
5.640E+00   1.181E+01  2.940E-01 
5.705E+00   1.188E+01  2.930E-01 
5.771E+00   1.195E+01  2.920E-01 
5.838E+00   1.201E+01  2.910E-01 
5.906E+00   1.208E+01  2.900E-01 
5.975E+00   1.215E+01  2.890E-01 
6.044E+00   1.222E+01  2.880E-01 
6.114E+00   1.229E+01  2.870E-01 
6.185E+00   1.236E+01  2.860E-01 
6.257E+00   1.243E+01  2.849E-01 
6.329E+00   1.250E+01  2.839E-01 
6.403E+00   1.257E+01  2.829E-01 
6.477E+00   1.265E+01  2.818E-01 
6.552E+00   1.272E+01  2.808E-01 
6.628E+00   1.279E+01  2.797E-01 
6.705E+00   1.286E+01  2.787E-01 
6.783E+00   1.294E+01  2.776E-01 
6.861E+00   1.301E+01  2.766E-01 
6.941E+00   1.309E+01  2.755E-01 
7.021E+00   1.316E+01  2.745E-01 
7.103E+00   1.324E+01  2.734E-01 
7.185E+00   1.332E+01  2.724E-01 
7.269E+00   1.339E+01  2.713E-01 
7.353E+00   1.347E+01  2.702E-01 
7.438E+00   1.355E+01  2.691E-01 
7.524E+00   1.363E+01  2.681E-01 
7.612E+00   1.370E+01  2.670E-01 
7.700E+00   1.378E+01  2.659E-01 
7.789E+00   1.386E+01  2.648E-01 
7.880E+00   1.394E+01  2.638E-01 
7.971E+00   1.402E+01  2.627E-01 
8.064E+00   1.411E+01  2.616E-01 
8.157E+00   1.419E+01  2.605E-01 
8.252E+00   1.427E+01  2.594E-01 
8.347E+00   1.435E+01  2.583E-01 
8.444E+00   1.444E+01  2.572E-01 
8.542E+00   1.452E+01  2.561E-01 
8.641E+00   1.460E+01  2.550E-01 
8.741E+00   1.469E+01  2.539E-01 
8.843E+00   1.477E+01  2.528E-01 
8.945E+00   1.486E+01  2.517E-01 
9.049E+00   1.495E+01  2.506E-01 
9.154E+00   1.503E+01  2.495E-01 
9.260E+00   1.512E+01  2.484E-01 
9.368E+00   1.521E+01  2.473E-01 
9.476E+00   1.530E+01  2.462E-01 
9.586E+00   1.539E+01  2.451E-01 
9.698E+00   1.548E+01  2.440E-01 
9.810E+00   1.557E+01  2.428E-01 
9.924E+00   1.566E+01  2.417E-01 
1.004E+01   1.575E+01  2.406E-01 
1.016E+01   1.584E+01  2.395E-01 
1.027E+01   1.593E+01  2.384E-01 
1.039E+01   1.603E+01  2.373E-01 
1.051E+01   1.612E+01  2.362E-01 
1.063E+01   1.622E+01  2.350E-01 
1.076E+01   1.631E+01  2.339E-01 
1.088E+01   1.641E+01  2.328E-01 
1.101E+01   1.650E+01  2.317E-01 
1.114E+01   1.660E+01  2.306E-01 
1.127E+01   1.670E+01  2.295E-01 
1.140E+01   1.679E+01  2.284E-01 
1.153E+01   1.689E+01  2.272E-01 
1.166E+01   1.699E+01  2.261E-01 
1.180E+01   1.709E+01  2.250E-01 
1.193E+01   1.719E+01  2.239E-01 
1.207E+01   1.729E+01  2.228E-01 
1.221E+01   1.739E+01  2.217E-01 
1.235E+01   1.749E+01  2.206E-01 
1.250E+01   1.760E+01  2.194E-01 
1.264E+01   1.770E+01  2.183E-01 
1.279E+01   1.780E+01  2.172E-01 
1.294E+01   1.791E+01  2.161E-01 
1.309E+01   1.801E+01  2.150E-01 
1.324E+01   1.812E+01  2.139E-01 
1.339E+01   1.822E+01  2.128E-01 
1.355E+01   1.833E+01  2.117E-01 
1.371E+01   1.844E+01  2.106E-01 
1.387E+01   1.854E+01  2.095E-01 
1.403E+01   1.865E+01  2.084E-01 
1.419E+01   1.876E+01  2.073E-01 
1.435E+01   1.887E+01  2.061E-01 
1.452E+01   1.898E+01  2.050E-01 
1.469E+01   1.909E+01  2.040E-01 
1.486E+01   1.920E+01  2.029E-01 
1.503E+01   1.932E+01  2.018E-01 
1.521E+01   1.943E+01  2.007E-01 
1.538E+01   1.954E+01  1.996E-01 
1.556E+01   1.966E+01  1.985E-01 
1.574E+01   1.977E+01  1.974E-01 
1.592E+01   1.989E+01  1.963E-01 
1.611E+01   2.000E+01  1.952E-01 
1.629E+01   2.012E+01  1.941E-01 
1.648E+01   2.023E+01  1.931E-01 
1.667E+01   2.035E+01  1.920E-01 
1.687E+01   2.047E+01  1.909E-01 
1.706E+01   2.059E+01  1.898E-01 
1.726E+01   2.071E+01  1.887E-01 
1.746E+01   2.083E+01  1.877E-01 
1.766E+01   2.095E+01  1.866E-01 
1.787E+01   2.107E+01  1.855E-01 
1.808E+01   2.119E+01  1.845E-01 
1.829E+01   2.132E+01  1.834E-01 
1.850E+01   2.144E+01  1.823E-01 
1.871E+01   2.156E+01  1.813E-01 
1.893E+01   2.169E+01  1.802E-01 
1.915E+01   2.181E+01  1.792E-01 
1.937E+01   2.194E+01  1.781E-01 
1.960E+01   2.206E+01  1.771E-01 
1.982E+01   2.219E+01  1.760E-01 
2.005E+01   2.232E+01  1.750E-01 
2.029E+01   2.244E+01  1.740E-01 
2.052E+01   2.257E+01  1.729E-01 
2.076E+01   2.270E+01  1.719E-01 
2.100E+01   2.283E+01  1.709E-01 
2.124E+01   2.296E+01  1.698E-01 
2.149E+01   2.309E+01  1.688E-01 
2.174E+01   2.322E+01  1.678E-01 
2.199E+01   2.335E+01  1.668E-01 
2.225E+01   2.349E+01  1.657E-01 
2.250E+01   2.362E+01  1.647E-01 
2.277E+01   2.375E+01  1.637E-01 
2.303E+01   2.389E+01  1.627E-01 
2.330E+01   2.402E+01  1.617E-01 
2.357E+01   2.415E+01  1.607E-01 
2.384E+01   2.429E+01  1.597E-01 
2.412E+01   2.442E+01  1.587E-01 
2.440E+01   2.456E+01  1.577E-01 
2.468E+01   2.470E+01  1.567E-01 
2.497E+01   2.483E+01  1.557E-01 
2.526E+01   2.497E+01  1.548E-01 
2.555E+01   2.511E+01  1.538E-01 
2.584E+01   2.525E+01  1.528E-01 
2.614E+01   2.539E+01  1.518E-01 
2.645E+01   2.553E+01  1.509E-01 
2.675E+01   2.566E+01  1.499E-01 
2.707E+01   2.580E+01  1.489E-01 
2.738E+01   2.594E+01  1.480E-01 
2.770E+01   2.609E+01  1.470E-01 
2.802E+01   2.623E+01  1.461E-01 
2.834E+01   2.637E+01  1.451E-01 
2.867E+01   2.651E+01  1.442E-01 
2.900E+01   2.665E+01  1.432E-01 
2.934E+01   2.679E+01  1.423E-01 
2.968E+01   2.693E+01  1.414E-01 
3.003E+01   2.708E+01  1.405E-01 
3.037E+01   2.722E+01  1.395E-01 
3.073E+01   2.736E+01  1.386E-01 
3.108E+01   2.750E+01  1.377E-01 
3.144E+01   2.765E+01  1.368E-01 
3.181E+01   2.779E+01  1.359E-01 
3.218E+01   2.793E+01  1.350E-01 
3.255E+01   2.808E+01  1.341E-01 
3.293E+01   2.822E+01  1.332E-01 
3.331E+01   2.836E+01  1.323E-01 
3.370E+01   2.851E+01  1.314E-01 
3.409E+01   2.865E+01  1.305E-01 
3.448E+01   2.879E+01  1.296E-01 
3.488E+01   2.894E+01  1.287E-01 
3.529E+01   2.908E+01  1.278E-01 
3.570E+01   2.922E+01  1.270E-01 
3.611E+01   2.937E+01  1.261E-01 
3.653E+01   2.951E+01  1.252E-01 
3.695E+01   2.965E+01  1.244E-01 
3.738E+01   2.979E+01  1.235E-01 
3.781E+01   2.994E+01  1.227E-01 
3.825E+01   3.008E+01  1.218E-01 
3.870E+01   3.022E+01  1.210E-01 
3.915E+01   3.036E+01  1.201E-01 
3.960E+01   3.050E+01  1.193E-01 
4.006E+01   3.064E+01  1.185E-01 
4.052E+01   3.078E+01  1.176E-01 
4.099E+01   3.092E+01  1.168E-01 
4.147E+01   3.106E+01  1.160E-01 
4.195E+01   3.119E+01  1.152E-01 
4.244E+01   3.133E+01  1.144E-01 
4.293E+01   3.147E+01  1.136E-01 
4.343E+01   3.160E+01  1.127E-01 
4.393E+01   3.174E+01  1.119E-01 
4.444E+01   3.187E+01  1.111E-01 
4.496E+01   3.200E+01  1.104E-01 
4.548E+01   3.214E+01  1.096E-01 
4.600E+01   3.227E+01  1.088E-01 
4.654E+01   3.240E+01  1.080E-01 
4.708E+01   3.253E+01  1.072E-01 
4.762E+01   3.265E+01  1.065E-01 
4.818E+01   3.278E+01  1.057E-01 
4.873E+01   3.290E+01  1.049E-01 
4.930E+01   3.303E+01  1.042E-01 
4.987E+01   3.315E+01  1.034E-01 
5.045E+01   3.327E+01  1.027E-01 
5.104E+01   3.339E+01  1.019E-01 
5.163E+01   3.351E+01  1.012E-01 
5.223E+01   3.363E+01  1.004E-01 
5.283E+01   3.374E+01  9.969E-02 
5.344E+01   3.385E+01  9.895E-02 
5.406E+01   3.396E+01  9.823E-02 
5.469E+01   3.407E+01  9.750E-02 
5.533E+01   3.418E+01  9.678E-02 
5.597E+01   3.429E+01  9.607E-02 
5.662E+01   3.439E+01  9.535E-02 
5.727E+01   3.449E+01  9.465E-02 
5.794E+01   3.459E+01  9.394E-02 
5.861E+01   3.469E+01  9.324E-02 
5.929E+01   3.478E+01  9.255E-02 
5.998E+01   3.487E+01  9.185E-02 
6.067E+01   3.496E+01  9.117E-02 
6.138E+01   3.505E+01  9.048E-02 
6.209E+01   3.514E+01  8.980E-02 
6.281E+01   3.522E+01  8.912E-02 
6.354E+01   3.530E+01  8.845E-02 
6.427E+01   3.538E+01  8.778E-02 
6.502E+01   3.545E+01  8.712E-02 
6.577E+01   3.552E+01  8.646E-02 
6.654E+01   3.559E+01  8.580E-02 
6.731E+01   3.565E+01  8.515E-02 
6.809E+01   3.572E+01  8.450E-02 
6.888E+01   3.578E+01  8.386E-02 
6.968E+01   3.583E+01  8.322E-02 
7.049E+01   3.588E+01  8.258E-02 
7.130E+01   3.593E+01  8.195E-02 
7.213E+01   3.598E+01  8.132E-02 
7.297E+01   3.602E+01  8.069E-02 
7.381E+01   3.606E+01  8.007E-02 
7.467E+01   3.610E+01  7.945E-02 
7.554E+01   3.613E+01  7.884E-02 
7.641E+01   3.616E+01  7.823E-02 
7.730E+01   3.618E+01  7.762E-02 
7.820E+01   3.620E+01  7.702E-02 
7.910E+01   3.622E+01  7.642E-02 
8.002E+01   3.624E+01  7.583E-02 
8.095E+01   3.625E+01  7.523E-02 
8.189E+01   3.625E+01  7.465E-02 
8.284E+01   3.625E+01  7.406E-02 
8.380E+01   3.625E+01  7.348E-02 
8.477E+01   3.625E+01  7.291E-02 
8.575E+01   3.624E+01  7.233E-02 
8.675E+01   3.622E+01  7.176E-02 
8.775E+01   3.620E+01  7.120E-02 
8.877E+01   3.618E+01  7.064E-02 
8.980E+01   3.616E+01  7.008E-02 
9.084E+01   3.613E+01  6.952E-02 
9.190E+01   3.609E+01  6.897E-02 
9.296E+01   3.606E+01  6.843E-02 
9.404E+01   3.601E+01  6.788E-02 
9.513E+01   3.597E+01  6.734E-02 
9.624E+01   3.592E+01  6.681E-02 
9.735E+01   3.587E+01  6.627E-02 
9.848E+01   3.581E+01  6.574E-02 
9.962E+01   3.575E+01  6.522E-02 
1.008E+02   3.568E+01  6.470E-02 
1.019E+02   3.561E+01  6.418E-02 
1.031E+02   3.554E+01  6.366E-02 
1.043E+02   3.546E+01  6.315E-02 
1.055E+02   3.538E+01  6.264E-02 
1.068E+02   3.529E+01  6.403E-02 
1.080E+02   3.521E+01  6.351E-02 
1.093E+02   3.511E+01  6.300E-02 
1.105E+02   3.502E+01  6.248E-02 
1.118E+02   3.492E+01  6.198E-02 
1.131E+02   3.482E+01  6.147E-02 
1.144E+02   3.471E+01  6.097E-02 
1.157E+02   3.460E+01  6.047E-02 
1.171E+02   3.449E+01  5.997E-02 
1.184E+02   3.437E+01  5.948E-02 
1.198E+02   3.425E+01  5.899E-02 
1.212E+02   3.413E+01  5.851E-02 
1.226E+02   3.400E+01  5.803E-02 
1.240E+02   3.388E+01  5.755E-02 
1.255E+02   3.375E+01  5.707E-02 
1.269E+02   3.361E+01  5.660E-02 
1.284E+02   3.348E+01  5.613E-02 
1.299E+02   3.334E+01  5.567E-02 
1.314E+02   3.320E+01  5.520E-02 
1.329E+02   3.305E+01  5.475E-02 
1.345E+02   3.291E+01  5.429E-02 
1.360E+02   3.276E+01  5.384E-02 
1.376E+02   3.261E+01  5.339E-02 
1.392E+02   3.246E+01  5.294E-02 
1.408E+02   3.231E+01  5.250E-02 
1.424E+02   3.215E+01  5.206E-02 
1.441E+02   3.200E+01  5.163E-02 
1.458E+02   3.184E+01  5.119E-02 
1.475E+02   3.168E+01  5.076E-02 
1.492E+02   3.152E+01  5.034E-02 
1.509E+02   3.136E+01  4.991E-02 
1.526E+02   3.120E+01  4.949E-02 
1.544E+02   3.103E+01  4.908E-02 
1.562E+02   3.087E+01  4.866E-02 
1.580E+02   3.071E+01  4.825E-02 
1.598E+02   3.054E+01  4.784E-02 
1.617E+02   3.037E+01  4.744E-02 
1.636E+02   3.021E+01  4.703E-02 
1.655E+02   3.004E+01  4.664E-02 
1.674E+02   2.987E+01  4.624E-02 
1.693E+02   2.971E+01  4.585E-02 
1.713E+02   2.954E+01  4.546E-02 
1.733E+02   2.937E+01  4.507E-02 
1.753E+02   2.920E+01  4.468E-02 
1.773E+02   2.904E+01  4.430E-02 
1.794E+02   2.887E+01  4.392E-02 
1.815E+02   2.870E+01  4.355E-02 
1.836E+02   2.854E+01  4.317E-02 
1.857E+02   2.837E+01  4.280E-02 
1.879E+02   2.821E+01  4.244E-02 
1.900E+02   2.804E+01  4.207E-02 
1.922E+02   2.788E+01  4.171E-02 
1.945E+02   2.772E+01  4.135E-02 
1.967E+02   2.755E+01  4.099E-02 
1.990E+02   2.739E+01  4.064E-02 
2.013E+02   2.723E+01  4.029E-02 
2.036E+02   2.707E+01  3.994E-02 
2.060E+02   2.691E+01  3.960E-02 
2.084E+02   2.676E+01  3.925E-02 
2.108E+02   2.660E+01  3.891E-02 
2.133E+02   2.644E+01  3.858E-02 
2.157E+02   2.629E+01  3.824E-02 
2.182E+02   2.614E+01  3.791E-02 
2.208E+02   2.599E+01  3.758E-02 
2.233E+02   2.583E+01  3.725E-02 
2.259E+02   2.568E+01  3.693E-02 
2.285E+02   2.554E+01  3.661E-02 
2.312E+02   2.539E+01  3.629E-02 
2.339E+02   2.524E+01  3.597E-02 
2.366E+02   2.510E+01  3.565E-02 
2.393E+02   2.496E+01  3.534E-02 
2.421E+02   2.482E+01  3.503E-02 
2.449E+02   2.467E+01  3.473E-02 
2.478E+02   2.454E+01  3.442E-02 
2.506E+02   2.440E+01  3.412E-02 
2.535E+02   2.426E+01  3.382E-02 
2.565E+02   2.413E+01  3.352E-02 
2.595E+02   2.399E+01  3.323E-02 
2.625E+02   2.386E+01  3.293E-02 
2.655E+02   2.373E+01  3.264E-02 
2.686E+02   2.360E+01  3.236E-02 
2.717E+02   2.347E+01  3.207E-02 
2.749E+02   2.335E+01  3.179E-02 
2.780E+02   2.322E+01  3.151E-02 
2.813E+02   2.310E+01  3.123E-02 
2.845E+02   2.297E+01  3.095E-02 
2.878E+02   2.285E+01  3.068E-02 
2.912E+02   2.273E+01  3.040E-02 
2.945E+02   2.261E+01  3.013E-02 
2.980E+02   2.249E+01  2.987E-02 
3.014E+02   2.237E+01  2.960E-02 
3.049E+02   2.226E+01  2.934E-02 
3.085E+02   2.214E+01  2.908E-02 
3.120E+02   2.203E+01  2.882E-02 
3.156E+02   2.192E+01  2.856E-02 
3.193E+02   2.181E+01  2.830E-02 
3.230E+02   2.170E+01  2.805E-02 
3.268E+02   2.159E+01  2.780E-02 
3.306E+02   2.148E+01  2.755E-02 
3.344E+02   2.137E+01  2.731E-02 
3.383E+02   2.127E+01  2.706E-02 
3.422E+02   2.116E+01  2.682E-02 
3.462E+02   2.106E+01  2.658E-02 
3.502E+02   2.095E+01  2.634E-02 
3.542E+02   2.085E+01  2.610E-02 
3.583E+02   2.075E+01  2.587E-02 
3.625E+02   2.065E+01  2.564E-02 
3.667E+02   2.055E+01  2.541E-02 
3.710E+02   2.045E+01  2.518E-02 
3.753E+02   2.035E+01  2.495E-02 
3.796E+02   2.025E+01  2.472E-02 
3.840E+02   2.015E+01  2.450E-02 
3.885E+02   2.006E+01  2.428E-02 
3.930E+02   1.996E+01  2.406E-02 
3.975E+02   1.987E+01  2.384E-02 
4.021E+02   1.977E+01  2.363E-02 
4.068E+02   1.968E+01  2.341E-02 
4.115E+02   1.959E+01  2.320E-02 
4.163E+02   1.949E+01  2.299E-02 
4.211E+02   1.940E+01  2.278E-02 
4.260E+02   1.931E+01  2.258E-02 
4.310E+02   1.922E+01  2.237E-02 
4.360E+02   1.913E+01  2.217E-02 
4.410E+02   1.904E+01  2.197E-02 
4.461E+02   1.895E+01  2.177E-02 
4.513E+02   1.886E+01  2.157E-02 
4.565E+02   1.877E+01  2.137E-02 
4.618E+02   1.868E+01  2.118E-02 
4.672E+02   1.860E+01  2.098E-02 
4.726E+02   1.851E+01  2.079E-02 
4.781E+02   1.842E+01  2.060E-02 
4.836E+02   1.834E+01  2.041E-02 
4.892E+02   1.825E+01  2.023E-02 
4.949E+02   1.817E+01  2.004E-02 
5.007E+02   1.808E+01  1.986E-02 
5.065E+02   1.800E+01  1.968E-02 
5.123E+02   1.791E+01  1.950E-02 
5.183E+02   1.783E+01  1.932E-02 
5.243E+02   1.774E+01  1.914E-02 
5.304E+02   1.766E+01  1.896E-02 
5.365E+02   1.758E+01  1.879E-02 
5.428E+02   1.749E+01  1.862E-02 
5.490E+02   1.741E+01  1.845E-02 
5.554E+02   1.733E+01  1.828E-02 
5.619E+02   1.725E+01  1.811E-02 
5.684E+02   1.716E+01  1.794E-02 
5.750E+02   1.708E+01  1.778E-02 
5.816E+02   1.700E+01  1.761E-02 
5.884E+02   1.692E+01  1.745E-02 
5.952E+02   1.684E+01  1.729E-02 
6.021E+02   1.676E+01  1.713E-02 
6.091E+02   1.668E+01  1.697E-02 
6.162E+02   1.660E+01  1.681E-02 
6.233E+02   1.652E+01  1.666E-02 
6.305E+02   1.644E+01  1.650E-02 
6.378E+02   1.636E+01  1.635E-02 
6.452E+02   1.628E+01  1.620E-02 
6.527E+02   1.620E+01  1.605E-02 
6.603E+02   1.612E+01  1.590E-02 
6.680E+02   1.604E+01  1.575E-02 
6.757E+02   1.596E+01  1.561E-02 
6.835E+02   1.589E+01  1.546E-02 
6.915E+02   1.581E+01  1.532E-02 
6.995E+02   1.573E+01  1.517E-02 
7.076E+02   1.565E+01  1.503E-02 
7.158E+02   1.558E+01  1.489E-02 
7.241E+02   1.550E+01  1.475E-02 
7.325E+02   1.542E+01  1.462E-02 
7.410E+02   1.535E+01  1.448E-02 
7.496E+02   1.527E+01  1.434E-02 
7.583E+02   1.519E+01  1.421E-02 
7.671E+02   1.512E+01  1.408E-02 
7.760E+02   1.504E+01  1.395E-02 
7.850E+02   1.497E+01  1.382E-02 
7.941E+02   1.489E+01  1.369E-02 
8.033E+02   1.482E+01  1.356E-02 
8.126E+02   1.475E+01  1.343E-02 
8.221E+02   1.467E+01  1.331E-02 
8.316E+02   1.460E+01  1.318E-02 
