Ion = Hydrogen    . Mass = 1.0079
Tgt = Na (Solid). Density = .97 g/cm3
Stopping Units =  eV/(1E15 atoms/cm2)
Energy(keV)  S(Elec)    S(Nuc)
1.000E+00   3.889E+00  4.772E-01 
1.012E+00   3.911E+00  4.760E-01 
1.023E+00   3.934E+00  4.747E-01 
1.035E+00   3.957E+00  4.734E-01 
1.047E+00   3.979E+00  4.721E-01 
1.059E+00   4.002E+00  4.708E-01 
1.072E+00   4.026E+00  4.695E-01 
1.084E+00   4.049E+00  4.682E-01 
1.097E+00   4.072E+00  4.669E-01 
1.109E+00   4.096E+00  4.656E-01 
1.122E+00   4.120E+00  4.642E-01 
1.135E+00   4.143E+00  4.629E-01 
1.148E+00   4.167E+00  4.615E-01 
1.162E+00   4.191E+00  4.602E-01 
1.175E+00   4.216E+00  4.588E-01 
1.189E+00   4.240E+00  4.574E-01 
1.203E+00   4.265E+00  4.560E-01 
1.217E+00   4.289E+00  4.546E-01 
1.231E+00   4.314E+00  4.532E-01 
1.245E+00   4.339E+00  4.518E-01 
1.259E+00   4.364E+00  4.503E-01 
1.274E+00   4.389E+00  4.489E-01 
1.289E+00   4.415E+00  4.475E-01 
1.304E+00   4.440E+00  4.460E-01 
1.319E+00   4.466E+00  4.446E-01 
1.334E+00   4.492E+00  4.431E-01 
1.350E+00   4.518E+00  4.416E-01 
1.365E+00   4.544E+00  4.401E-01 
1.381E+00   4.570E+00  4.387E-01 
1.397E+00   4.597E+00  4.372E-01 
1.413E+00   4.623E+00  4.357E-01 
1.430E+00   4.650E+00  4.342E-01 
1.446E+00   4.677E+00  4.326E-01 
1.463E+00   4.704E+00  4.311E-01 
1.480E+00   4.731E+00  4.296E-01 
1.497E+00   4.758E+00  4.281E-01 
1.515E+00   4.786E+00  4.265E-01 
1.532E+00   4.814E+00  4.250E-01 
1.550E+00   4.841E+00  4.234E-01 
1.568E+00   4.869E+00  4.219E-01 
1.586E+00   4.898E+00  4.203E-01 
1.605E+00   4.926E+00  4.187E-01 
1.623E+00   4.954E+00  4.172E-01 
1.642E+00   4.983E+00  4.156E-01 
1.661E+00   5.012E+00  4.140E-01 
1.680E+00   5.041E+00  4.124E-01 
1.700E+00   5.070E+00  4.108E-01 
1.719E+00   5.099E+00  4.092E-01 
1.739E+00   5.129E+00  4.076E-01 
1.760E+00   5.158E+00  4.060E-01 
1.780E+00   5.188E+00  4.044E-01 
1.801E+00   5.218E+00  4.028E-01 
1.822E+00   5.248E+00  4.012E-01 
1.843E+00   5.279E+00  3.996E-01 
1.864E+00   5.309E+00  3.979E-01 
1.886E+00   5.340E+00  3.963E-01 
1.908E+00   5.371E+00  3.947E-01 
1.930E+00   5.402E+00  3.930E-01 
1.952E+00   5.433E+00  3.914E-01 
1.975E+00   5.465E+00  3.897E-01 
1.998E+00   5.496E+00  3.881E-01 
2.021E+00   5.528E+00  3.864E-01 
2.044E+00   5.559E+00  3.848E-01 
2.068E+00   5.590E+00  3.831E-01 
2.092E+00   5.621E+00  3.815E-01 
2.116E+00   5.652E+00  3.798E-01 
2.141E+00   5.683E+00  3.781E-01 
2.166E+00   5.715E+00  3.765E-01 
2.191E+00   5.746E+00  3.748E-01 
2.216E+00   5.778E+00  3.731E-01 
2.242E+00   5.810E+00  3.715E-01 
2.268E+00   5.842E+00  3.698E-01 
2.294E+00   5.874E+00  3.681E-01 
2.321E+00   5.906E+00  3.664E-01 
2.348E+00   5.938E+00  3.647E-01 
2.375E+00   5.970E+00  3.631E-01 
2.402E+00   6.002E+00  3.614E-01 
2.430E+00   6.035E+00  3.597E-01 
2.458E+00   6.067E+00  3.580E-01 
2.487E+00   6.100E+00  3.563E-01 
2.516E+00   6.132E+00  3.546E-01 
2.545E+00   6.165E+00  3.530E-01 
2.574E+00   6.198E+00  3.513E-01 
2.604E+00   6.230E+00  3.496E-01 
2.635E+00   6.263E+00  3.479E-01 
2.665E+00   6.296E+00  3.462E-01 
2.696E+00   6.329E+00  3.445E-01 
2.727E+00   6.362E+00  3.428E-01 
2.759E+00   6.395E+00  3.411E-01 
2.791E+00   6.428E+00  3.395E-01 
2.823E+00   6.461E+00  3.378E-01 
2.856E+00   6.494E+00  3.361E-01 
2.889E+00   6.528E+00  3.344E-01 
2.923E+00   6.561E+00  3.327E-01 
2.957E+00   6.594E+00  3.310E-01 
2.991E+00   6.627E+00  3.293E-01 
3.026E+00   6.660E+00  3.277E-01 
3.061E+00   6.693E+00  3.260E-01 
3.096E+00   6.727E+00  3.243E-01 
3.132E+00   6.760E+00  3.226E-01 
3.168E+00   6.793E+00  3.209E-01 
3.205E+00   6.827E+00  3.193E-01 
3.242E+00   6.860E+00  3.176E-01 
3.280E+00   6.893E+00  3.159E-01 
3.318E+00   6.926E+00  3.142E-01 
3.356E+00   6.960E+00  3.126E-01 
3.395E+00   6.993E+00  3.109E-01 
3.435E+00   7.026E+00  3.092E-01 
3.475E+00   7.060E+00  3.076E-01 
3.515E+00   7.093E+00  3.059E-01 
3.556E+00   7.126E+00  3.042E-01 
3.597E+00   7.160E+00  3.026E-01 
3.639E+00   7.193E+00  3.009E-01 
3.681E+00   7.227E+00  2.993E-01 
3.724E+00   7.260E+00  2.976E-01 
3.767E+00   7.294E+00  2.960E-01 
3.810E+00   7.328E+00  2.943E-01 
3.855E+00   7.361E+00  2.927E-01 
3.899E+00   7.395E+00  2.910E-01 
3.945E+00   7.429E+00  2.894E-01 
3.990E+00   7.463E+00  2.878E-01 
4.037E+00   7.497E+00  2.861E-01 
4.083E+00   7.532E+00  2.845E-01 
4.131E+00   7.566E+00  2.829E-01 
4.179E+00   7.600E+00  2.813E-01 
4.227E+00   7.635E+00  2.796E-01 
4.276E+00   7.670E+00  2.780E-01 
4.326E+00   7.705E+00  2.764E-01 
4.376E+00   7.740E+00  2.748E-01 
4.427E+00   7.775E+00  2.732E-01 
4.478E+00   7.811E+00  2.716E-01 
4.530E+00   7.847E+00  2.700E-01 
4.583E+00   7.883E+00  2.684E-01 
4.636E+00   7.919E+00  2.668E-01 
4.690E+00   7.956E+00  2.652E-01 
4.744E+00   7.993E+00  2.637E-01 
4.799E+00   8.030E+00  2.621E-01 
4.855E+00   8.068E+00  2.605E-01 
4.911E+00   8.106E+00  2.589E-01 
4.968E+00   8.144E+00  2.574E-01 
5.026E+00   8.182E+00  2.558E-01 
5.084E+00   8.221E+00  2.543E-01 
5.143E+00   8.261E+00  2.527E-01 
5.202E+00   8.300E+00  2.512E-01 
5.263E+00   8.340E+00  2.496E-01 
5.324E+00   8.381E+00  2.481E-01 
5.386E+00   8.422E+00  2.466E-01 
5.448E+00   8.463E+00  2.450E-01 
5.511E+00   8.505E+00  2.435E-01 
5.575E+00   8.547E+00  2.420E-01 
5.640E+00   8.590E+00  2.405E-01 
5.705E+00   8.633E+00  2.390E-01 
5.771E+00   8.676E+00  2.375E-01 
5.838E+00   8.720E+00  2.360E-01 
5.906E+00   8.765E+00  2.345E-01 
5.975E+00   8.810E+00  2.330E-01 
6.044E+00   8.855E+00  2.315E-01 
6.114E+00   8.901E+00  2.300E-01 
6.185E+00   8.947E+00  2.286E-01 
6.257E+00   8.994E+00  2.271E-01 
6.329E+00   9.041E+00  2.256E-01 
6.403E+00   9.089E+00  2.242E-01 
6.477E+00   9.137E+00  2.227E-01 
6.552E+00   9.186E+00  2.213E-01 
6.628E+00   9.235E+00  2.198E-01 
6.705E+00   9.284E+00  2.184E-01 
6.783E+00   9.335E+00  2.170E-01 
6.861E+00   9.385E+00  2.155E-01 
6.941E+00   9.436E+00  2.141E-01 
7.021E+00   9.488E+00  2.127E-01 
7.103E+00   9.539E+00  2.113E-01 
7.185E+00   9.592E+00  2.099E-01 
7.269E+00   9.645E+00  2.085E-01 
7.353E+00   9.698E+00  2.071E-01 
7.438E+00   9.752E+00  2.057E-01 
7.524E+00   9.806E+00  2.044E-01 
7.612E+00   9.860E+00  2.030E-01 
7.700E+00   9.915E+00  2.016E-01 
7.789E+00   9.971E+00  2.003E-01 
7.880E+00   1.003E+01  1.989E-01 
7.971E+00   1.008E+01  1.976E-01 
8.064E+00   1.014E+01  1.962E-01 
8.157E+00   1.020E+01  1.949E-01 
8.252E+00   1.025E+01  1.936E-01 
8.347E+00   1.031E+01  1.922E-01 
8.444E+00   1.037E+01  1.909E-01 
8.542E+00   1.043E+01  1.896E-01 
8.641E+00   1.049E+01  1.883E-01 
8.741E+00   1.055E+01  1.870E-01 
8.843E+00   1.061E+01  1.857E-01 
8.945E+00   1.067E+01  1.844E-01 
9.049E+00   1.073E+01  1.831E-01 
9.154E+00   1.079E+01  1.818E-01 
9.260E+00   1.085E+01  1.806E-01 
9.368E+00   1.091E+01  1.793E-01 
9.476E+00   1.097E+01  1.780E-01 
9.586E+00   1.103E+01  1.768E-01 
9.698E+00   1.110E+01  1.756E-01 
9.810E+00   1.116E+01  1.743E-01 
9.924E+00   1.122E+01  1.731E-01 
1.004E+01   1.129E+01  1.718E-01 
1.016E+01   1.135E+01  1.706E-01 
1.027E+01   1.141E+01  1.694E-01 
1.039E+01   1.148E+01  1.682E-01 
1.051E+01   1.154E+01  1.670E-01 
1.063E+01   1.161E+01  1.658E-01 
1.076E+01   1.167E+01  1.646E-01 
1.088E+01   1.174E+01  1.634E-01 
1.101E+01   1.180E+01  1.622E-01 
1.114E+01   1.187E+01  1.611E-01 
1.127E+01   1.194E+01  1.599E-01 
1.140E+01   1.200E+01  1.587E-01 
1.153E+01   1.207E+01  1.576E-01 
1.166E+01   1.214E+01  1.564E-01 
1.180E+01   1.220E+01  1.553E-01 
1.193E+01   1.227E+01  1.542E-01 
1.207E+01   1.234E+01  1.530E-01 
1.221E+01   1.241E+01  1.519E-01 
1.235E+01   1.248E+01  1.508E-01 
1.250E+01   1.254E+01  1.497E-01 
1.264E+01   1.261E+01  1.486E-01 
1.279E+01   1.268E+01  1.475E-01 
1.294E+01   1.275E+01  1.464E-01 
1.309E+01   1.282E+01  1.453E-01 
1.324E+01   1.289E+01  1.442E-01 
1.339E+01   1.296E+01  1.431E-01 
1.355E+01   1.303E+01  1.421E-01 
1.371E+01   1.310E+01  1.410E-01 
1.387E+01   1.317E+01  1.400E-01 
1.403E+01   1.324E+01  1.389E-01 
1.419E+01   1.331E+01  1.379E-01 
1.435E+01   1.338E+01  1.368E-01 
1.452E+01   1.345E+01  1.358E-01 
1.469E+01   1.352E+01  1.348E-01 
1.486E+01   1.359E+01  1.337E-01 
1.503E+01   1.366E+01  1.327E-01 
1.521E+01   1.374E+01  1.317E-01 
1.538E+01   1.381E+01  1.307E-01 
1.556E+01   1.388E+01  1.297E-01 
1.574E+01   1.395E+01  1.287E-01 
1.592E+01   1.402E+01  1.278E-01 
1.611E+01   1.409E+01  1.268E-01 
1.629E+01   1.417E+01  1.258E-01 
1.648E+01   1.424E+01  1.248E-01 
1.667E+01   1.431E+01  1.239E-01 
1.687E+01   1.438E+01  1.229E-01 
1.706E+01   1.445E+01  1.220E-01 
1.726E+01   1.453E+01  1.210E-01 
1.746E+01   1.460E+01  1.201E-01 
1.766E+01   1.467E+01  1.192E-01 
1.787E+01   1.474E+01  1.182E-01 
1.808E+01   1.482E+01  1.173E-01 
1.829E+01   1.489E+01  1.164E-01 
1.850E+01   1.496E+01  1.155E-01 
1.871E+01   1.504E+01  1.146E-01 
1.893E+01   1.511E+01  1.137E-01 
1.915E+01   1.518E+01  1.128E-01 
1.937E+01   1.525E+01  1.119E-01 
1.960E+01   1.533E+01  1.110E-01 
1.982E+01   1.540E+01  1.102E-01 
2.005E+01   1.547E+01  1.093E-01 
2.029E+01   1.554E+01  1.084E-01 
2.052E+01   1.562E+01  1.076E-01 
2.076E+01   1.569E+01  1.067E-01 
2.100E+01   1.576E+01  1.059E-01 
2.124E+01   1.583E+01  1.050E-01 
2.149E+01   1.591E+01  1.042E-01 
2.174E+01   1.598E+01  1.034E-01 
2.199E+01   1.605E+01  1.026E-01 
2.225E+01   1.612E+01  1.017E-01 
2.250E+01   1.619E+01  1.009E-01 
2.277E+01   1.627E+01  1.001E-01 
2.303E+01   1.634E+01  9.931E-02 
2.330E+01   1.641E+01  9.852E-02 
2.357E+01   1.648E+01  9.773E-02 
2.384E+01   1.655E+01  9.694E-02 
2.412E+01   1.662E+01  9.616E-02 
2.440E+01   1.669E+01  9.538E-02 
2.468E+01   1.676E+01  9.461E-02 
2.497E+01   1.683E+01  9.385E-02 
2.526E+01   1.690E+01  9.309E-02 
2.555E+01   1.697E+01  9.233E-02 
2.584E+01   1.704E+01  9.158E-02 
2.614E+01   1.711E+01  9.084E-02 
2.645E+01   1.718E+01  9.010E-02 
2.675E+01   1.725E+01  8.937E-02 
2.707E+01   1.732E+01  8.864E-02 
2.738E+01   1.739E+01  8.791E-02 
2.770E+01   1.746E+01  8.720E-02 
2.802E+01   1.753E+01  8.648E-02 
2.834E+01   1.759E+01  8.577E-02 
2.867E+01   1.766E+01  8.507E-02 
2.900E+01   1.773E+01  8.094E-02 
2.934E+01   1.779E+01  8.028E-02 
2.968E+01   1.786E+01  7.963E-02 
3.003E+01   1.793E+01  7.898E-02 
3.037E+01   1.799E+01  7.834E-02 
3.073E+01   1.806E+01  7.770E-02 
3.108E+01   1.812E+01  7.706E-02 
3.144E+01   1.819E+01  7.643E-02 
3.181E+01   1.825E+01  7.580E-02 
3.218E+01   1.831E+01  7.518E-02 
3.255E+01   1.838E+01  7.457E-02 
3.293E+01   1.844E+01  7.395E-02 
3.331E+01   1.850E+01  7.334E-02 
3.370E+01   1.856E+01  7.274E-02 
3.409E+01   1.862E+01  7.214E-02 
3.448E+01   1.868E+01  7.154E-02 
3.488E+01   1.874E+01  7.095E-02 
3.529E+01   1.880E+01  7.036E-02 
3.570E+01   1.886E+01  6.978E-02 
3.611E+01   1.892E+01  6.920E-02 
3.653E+01   1.898E+01  6.862E-02 
3.695E+01   1.904E+01  6.805E-02 
3.738E+01   1.909E+01  6.748E-02 
3.781E+01   1.915E+01  6.692E-02 
3.825E+01   1.920E+01  6.636E-02 
3.870E+01   1.926E+01  6.580E-02 
3.915E+01   1.931E+01  6.525E-02 
3.960E+01   1.937E+01  6.471E-02 
4.006E+01   1.942E+01  6.416E-02 
4.052E+01   1.947E+01  6.362E-02 
4.099E+01   1.952E+01  6.309E-02 
4.147E+01   1.957E+01  6.256E-02 
4.195E+01   1.963E+01  6.203E-02 
4.244E+01   1.967E+01  6.151E-02 
4.293E+01   1.972E+01  6.099E-02 
4.343E+01   1.977E+01  6.047E-02 
4.393E+01   1.982E+01  5.996E-02 
4.444E+01   1.986E+01  5.945E-02 
4.496E+01   1.991E+01  5.894E-02 
4.548E+01   1.996E+01  5.844E-02 
4.600E+01   2.000E+01  5.795E-02 
4.654E+01   2.004E+01  5.745E-02 
4.708E+01   2.008E+01  5.696E-02 
4.762E+01   2.013E+01  5.648E-02 
4.818E+01   2.017E+01  5.599E-02 
4.873E+01   2.021E+01  5.552E-02 
4.930E+01   2.025E+01  5.504E-02 
4.987E+01   2.028E+01  5.457E-02 
5.045E+01   2.032E+01  5.410E-02 
5.104E+01   2.036E+01  5.364E-02 
5.163E+01   2.039E+01  5.318E-02 
5.223E+01   2.043E+01  5.272E-02 
5.283E+01   2.046E+01  5.226E-02 
5.344E+01   2.049E+01  5.181E-02 
5.406E+01   2.053E+01  5.137E-02 
5.469E+01   2.056E+01  5.092E-02 
5.533E+01   2.059E+01  5.048E-02 
5.597E+01   2.061E+01  5.005E-02 
5.662E+01   2.064E+01  4.961E-02 
5.727E+01   2.067E+01  4.918E-02 
5.794E+01   2.070E+01  4.876E-02 
5.861E+01   2.072E+01  4.833E-02 
5.929E+01   2.074E+01  4.791E-02 
5.998E+01   2.077E+01  4.750E-02 
6.067E+01   2.079E+01  4.708E-02 
6.138E+01   2.081E+01  4.667E-02 
6.209E+01   2.083E+01  4.627E-02 
6.281E+01   2.085E+01  4.586E-02 
6.354E+01   2.086E+01  4.546E-02 
6.427E+01   2.088E+01  4.506E-02 
6.502E+01   2.090E+01  4.467E-02 
6.577E+01   2.091E+01  4.428E-02 
6.654E+01   2.092E+01  4.389E-02 
6.731E+01   2.094E+01  4.351E-02 
6.809E+01   2.095E+01  4.312E-02 
6.888E+01   2.096E+01  4.274E-02 
6.968E+01   2.097E+01  4.237E-02 
7.049E+01   2.097E+01  4.200E-02 
7.130E+01   2.098E+01  4.163E-02 
7.213E+01   2.098E+01  4.126E-02 
7.297E+01   2.099E+01  4.090E-02 
7.381E+01   2.099E+01  4.053E-02 
7.467E+01   2.099E+01  4.018E-02 
7.554E+01   2.099E+01  3.982E-02 
7.641E+01   2.099E+01  3.947E-02 
7.730E+01   2.099E+01  3.912E-02 
7.820E+01   2.099E+01  3.877E-02 
7.910E+01   2.099E+01  3.843E-02 
8.002E+01   2.098E+01  3.809E-02 
8.095E+01   2.098E+01  3.775E-02 
8.189E+01   2.097E+01  3.741E-02 
8.284E+01   2.096E+01  3.708E-02 
8.380E+01   2.095E+01  3.675E-02 
8.477E+01   2.094E+01  3.642E-02 
8.575E+01   2.093E+01  3.610E-02 
8.675E+01   2.092E+01  3.577E-02 
8.775E+01   2.090E+01  3.546E-02 
8.877E+01   2.089E+01  3.514E-02 
8.980E+01   2.087E+01  3.482E-02 
9.084E+01   2.085E+01  3.451E-02 
9.190E+01   2.083E+01  3.420E-02 
9.296E+01   2.081E+01  3.390E-02 
9.404E+01   2.079E+01  3.359E-02 
9.513E+01   2.077E+01  3.329E-02 
9.624E+01   2.075E+01  3.299E-02 
9.735E+01   2.072E+01  3.270E-02 
9.848E+01   2.070E+01  3.240E-02 
9.962E+01   2.067E+01  3.211E-02 
1.008E+02   2.064E+01  3.182E-02 
1.019E+02   2.062E+01  3.153E-02 
1.031E+02   2.059E+01  3.125E-02 
1.043E+02   2.055E+01  3.097E-02 
1.055E+02   2.052E+01  3.069E-02 
1.068E+02   2.049E+01  3.041E-02 
1.080E+02   2.046E+01  3.014E-02 
1.093E+02   2.042E+01  2.986E-02 
1.105E+02   2.038E+01  2.959E-02 
1.118E+02   2.035E+01  2.932E-02 
1.131E+02   2.031E+01  2.906E-02 
1.144E+02   2.027E+01  2.879E-02 
1.157E+02   2.023E+01  2.853E-02 
1.171E+02   2.019E+01  2.827E-02 
1.184E+02   2.014E+01  2.802E-02 
1.198E+02   2.010E+01  2.776E-02 
1.212E+02   2.006E+01  2.751E-02 
1.226E+02   2.001E+01  2.726E-02 
1.240E+02   1.996E+01  2.701E-02 
1.255E+02   1.992E+01  2.676E-02 
1.269E+02   1.987E+01  2.652E-02 
1.284E+02   1.982E+01  2.628E-02 
1.299E+02   1.977E+01  2.604E-02 
1.314E+02   1.972E+01  2.580E-02 
1.329E+02   1.967E+01  2.556E-02 
1.345E+02   1.961E+01  2.533E-02 
1.360E+02   1.956E+01  2.510E-02 
1.376E+02   1.950E+01  2.487E-02 
1.392E+02   1.945E+01  2.464E-02 
1.408E+02   1.939E+01  2.441E-02 
1.424E+02   1.933E+01  2.419E-02 
1.441E+02   1.928E+01  2.397E-02 
1.458E+02   1.922E+01  2.375E-02 
1.475E+02   1.916E+01  2.353E-02 
1.492E+02   1.910E+01  2.331E-02 
1.509E+02   1.904E+01  2.310E-02 
1.526E+02   1.897E+01  2.289E-02 
1.544E+02   1.891E+01  2.267E-02 
1.562E+02   1.885E+01  2.247E-02 
1.580E+02   1.878E+01  2.226E-02 
1.598E+02   1.872E+01  2.205E-02 
1.617E+02   1.865E+01  2.185E-02 
1.636E+02   1.859E+01  2.165E-02 
1.655E+02   1.852E+01  2.145E-02 
1.674E+02   1.845E+01  2.125E-02 
1.693E+02   1.838E+01  2.105E-02 
1.713E+02   1.831E+01  2.086E-02 
1.733E+02   1.824E+01  2.066E-02 
1.753E+02   1.817E+01  2.047E-02 
1.773E+02   1.810E+01  2.028E-02 
1.794E+02   1.803E+01  2.009E-02 
1.815E+02   1.796E+01  1.991E-02 
1.836E+02   1.789E+01  1.972E-02 
1.857E+02   1.781E+01  1.954E-02 
1.879E+02   1.774E+01  1.936E-02 
1.900E+02   1.766E+01  1.918E-02 
1.922E+02   1.759E+01  1.900E-02 
1.945E+02   1.751E+01  1.882E-02 
1.967E+02   1.744E+01  1.865E-02 
1.990E+02   1.736E+01  1.847E-02 
2.013E+02   1.729E+01  1.830E-02 
2.036E+02   1.721E+01  1.813E-02 
2.060E+02   1.713E+01  1.796E-02 
2.084E+02   1.705E+01  1.779E-02 
2.108E+02   1.697E+01  1.763E-02 
2.133E+02   1.690E+01  1.746E-02 
2.157E+02   1.682E+01  1.730E-02 
2.182E+02   1.674E+01  1.714E-02 
2.208E+02   1.666E+01  1.698E-02 
2.233E+02   1.658E+01  1.682E-02 
2.259E+02   1.650E+01  1.666E-02 
2.285E+02   1.642E+01  1.650E-02 
2.312E+02   1.634E+01  1.635E-02 
2.339E+02   1.625E+01  1.620E-02 
2.366E+02   1.617E+01  1.604E-02 
2.393E+02   1.609E+01  1.589E-02 
2.421E+02   1.601E+01  1.574E-02 
2.449E+02   1.593E+01  1.560E-02 
2.478E+02   1.584E+01  1.545E-02 
2.506E+02   1.576E+01  1.530E-02 
2.535E+02   1.568E+01  1.516E-02 
2.565E+02   1.560E+01  1.502E-02 
2.595E+02   1.551E+01  1.487E-02 
2.625E+02   1.543E+01  1.473E-02 
2.655E+02   1.535E+01  1.460E-02 
2.686E+02   1.526E+01  1.446E-02 
2.717E+02   1.518E+01  1.432E-02 
2.749E+02   1.509E+01  1.419E-02 
2.780E+02   1.501E+01  1.405E-02 
2.813E+02   1.493E+01  1.392E-02 
2.845E+02   1.484E+01  1.379E-02 
2.878E+02   1.476E+01  1.366E-02 
2.912E+02   1.467E+01  1.353E-02 
2.945E+02   1.459E+01  1.340E-02 
2.980E+02   1.450E+01  1.327E-02 
3.014E+02   1.442E+01  1.315E-02 
3.049E+02   1.434E+01  1.302E-02 
3.085E+02   1.425E+01  1.290E-02 
3.120E+02   1.417E+01  1.278E-02 
3.156E+02   1.408E+01  1.266E-02 
3.193E+02   1.400E+01  1.253E-02 
3.230E+02   1.391E+01  1.242E-02 
3.268E+02   1.383E+01  1.230E-02 
3.306E+02   1.375E+01  1.218E-02 
3.344E+02   1.366E+01  1.207E-02 
3.383E+02   1.358E+01  1.195E-02 
3.422E+02   1.349E+01  1.184E-02 
3.462E+02   1.341E+01  1.172E-02 
3.502E+02   1.333E+01  1.161E-02 
3.542E+02   1.324E+01  1.150E-02 
3.583E+02   1.316E+01  1.139E-02 
3.625E+02   1.308E+01  1.128E-02 
3.667E+02   1.299E+01  1.118E-02 
3.710E+02   1.291E+01  1.107E-02 
3.753E+02   1.283E+01  1.096E-02 
3.796E+02   1.275E+01  1.086E-02 
3.840E+02   1.266E+01  1.075E-02 
3.885E+02   1.258E+01  1.065E-02 
3.930E+02   1.250E+01  1.055E-02 
3.975E+02   1.242E+01  1.045E-02 
4.021E+02   1.233E+01  1.035E-02 
4.068E+02   1.225E+01  1.025E-02 
4.115E+02   1.217E+01  1.015E-02 
4.163E+02   1.209E+01  1.005E-02 
4.211E+02   1.201E+01  9.958E-03 
4.260E+02   1.193E+01  9.862E-03 
4.310E+02   1.185E+01  9.768E-03 
4.360E+02   1.177E+01  9.674E-03 
4.410E+02   1.169E+01  9.581E-03 
4.461E+02   1.161E+01  9.489E-03 
4.513E+02   1.153E+01  9.398E-03 
4.565E+02   1.145E+01  9.307E-03 
4.618E+02   1.137E+01  9.218E-03 
4.672E+02   1.129E+01  9.129E-03 
4.726E+02   1.121E+01  9.041E-03 
4.781E+02   1.113E+01  8.954E-03 
4.836E+02   1.106E+01  8.868E-03 
4.892E+02   1.098E+01  8.783E-03 
4.949E+02   1.090E+01  8.698E-03 
5.007E+02   1.082E+01  8.614E-03 
5.065E+02   1.075E+01  8.531E-03 
5.123E+02   1.067E+01  8.449E-03 
5.183E+02   1.059E+01  8.367E-03 
5.243E+02   1.052E+01  8.287E-03 
5.304E+02   1.044E+01  8.207E-03 
5.365E+02   1.037E+01  8.127E-03 
5.428E+02   1.029E+01  8.049E-03 
5.490E+02   1.022E+01  7.971E-03 
5.554E+02   1.014E+01  7.894E-03 
5.619E+02   1.007E+01  7.818E-03 
5.684E+02   9.995E+00  7.742E-03 
5.750E+02   9.922E+00  7.667E-03 
5.816E+02   9.849E+00  7.593E-03 
5.884E+02   9.776E+00  7.519E-03 
5.952E+02   9.704E+00  7.446E-03 
6.021E+02   9.632E+00  7.374E-03 
6.091E+02   9.560E+00  7.303E-03 
6.162E+02   9.489E+00  7.232E-03 
6.233E+02   9.418E+00  7.162E-03 
6.305E+02   9.348E+00  7.092E-03 
6.378E+02   9.277E+00  7.024E-03 
6.452E+02   9.207E+00  6.955E-03 
6.527E+02   9.138E+00  6.888E-03 
6.603E+02   9.069E+00  6.821E-03 
6.680E+02   9.000E+00  6.755E-03 
6.757E+02   8.932E+00  6.689E-03 
6.835E+02   8.864E+00  6.624E-03 
6.915E+02   8.796E+00  6.559E-03 
6.995E+02   8.728E+00  6.496E-03 
7.076E+02   8.662E+00  6.432E-03 
7.158E+02   8.595E+00  6.370E-03 
7.241E+02   8.529E+00  6.308E-03 
7.325E+02   8.463E+00  6.246E-03 
7.410E+02   8.397E+00  6.185E-03 
7.496E+02   8.332E+00  6.125E-03 
7.583E+02   8.267E+00  6.065E-03 
7.671E+02   8.203E+00  6.006E-03 
7.760E+02   8.139E+00  5.947E-03 
7.850E+02   8.075E+00  5.889E-03 
7.941E+02   8.012E+00  5.832E-03 
8.033E+02   7.949E+00  5.775E-03 
8.126E+02   7.887E+00  5.718E-03 
8.221E+02   7.825E+00  5.663E-03 
8.316E+02   7.763E+00  5.607E-03 
