Ion = Hydrogen    . Mass = 1.0079
Tgt =  H (Solid). Density = .071486 g/cm3
Stopping Units =  eV/(1E15 atoms/cm2)
Energy(keV)  S(Elec)    S(Nuc)
1.000E+00   1.156E+00  3.363E-01 
1.012E+00   1.162E+00  3.340E-01 
1.023E+00   1.169E+00  3.317E-01 
1.035E+00   1.176E+00  3.294E-01 
1.047E+00   1.183E+00  3.271E-01 
1.059E+00   1.189E+00  3.249E-01 
1.072E+00   1.196E+00  3.226E-01 
1.084E+00   1.203E+00  3.203E-01 
1.097E+00   1.210E+00  3.181E-01 
1.109E+00   1.217E+00  3.159E-01 
1.122E+00   1.224E+00  3.137E-01 
1.135E+00   1.231E+00  3.115E-01 
1.148E+00   1.238E+00  3.093E-01 
1.162E+00   1.246E+00  3.071E-01 
1.175E+00   1.253E+00  3.049E-01 
1.189E+00   1.260E+00  3.027E-01 
1.203E+00   1.267E+00  3.006E-01 
1.217E+00   1.275E+00  2.984E-01 
1.231E+00   1.282E+00  2.963E-01 
1.245E+00   1.289E+00  2.942E-01 
1.259E+00   1.297E+00  2.921E-01 
1.274E+00   1.304E+00  2.900E-01 
1.289E+00   1.312E+00  2.879E-01 
1.304E+00   1.320E+00  2.858E-01 
1.319E+00   1.327E+00  2.837E-01 
1.334E+00   1.335E+00  2.817E-01 
1.350E+00   1.343E+00  2.797E-01 
1.365E+00   1.350E+00  2.776E-01 
1.381E+00   1.358E+00  2.756E-01 
1.397E+00   1.366E+00  2.736E-01 
1.413E+00   1.374E+00  2.716E-01 
1.430E+00   1.382E+00  2.696E-01 
1.446E+00   1.390E+00  2.676E-01 
1.463E+00   1.398E+00  2.657E-01 
1.480E+00   1.406E+00  2.637E-01 
1.497E+00   1.414E+00  2.618E-01 
1.515E+00   1.422E+00  2.598E-01 
1.532E+00   1.431E+00  2.579E-01 
1.550E+00   1.439E+00  2.560E-01 
1.568E+00   1.447E+00  2.541E-01 
1.586E+00   1.455E+00  2.522E-01 
1.605E+00   1.464E+00  2.503E-01 
1.623E+00   1.472E+00  2.484E-01 
1.642E+00   1.481E+00  2.466E-01 
1.661E+00   1.489E+00  2.447E-01 
1.680E+00   1.498E+00  2.429E-01 
1.700E+00   1.507E+00  2.411E-01 
1.719E+00   1.515E+00  2.393E-01 
1.739E+00   1.524E+00  2.374E-01 
1.760E+00   1.533E+00  2.357E-01 
1.780E+00   1.542E+00  2.339E-01 
1.801E+00   1.551E+00  2.321E-01 
1.822E+00   1.560E+00  2.303E-01 
1.843E+00   1.569E+00  2.286E-01 
1.864E+00   1.578E+00  2.268E-01 
1.886E+00   1.587E+00  2.251E-01 
1.908E+00   1.596E+00  2.234E-01 
1.930E+00   1.605E+00  2.217E-01 
1.952E+00   1.615E+00  2.200E-01 
1.975E+00   1.624E+00  2.183E-01 
1.998E+00   1.633E+00  2.166E-01 
2.021E+00   1.643E+00  2.149E-01 
2.044E+00   1.652E+00  2.133E-01 
2.068E+00   1.661E+00  2.116E-01 
2.092E+00   1.671E+00  2.100E-01 
2.116E+00   1.680E+00  2.084E-01 
2.141E+00   1.690E+00  2.067E-01 
2.166E+00   1.699E+00  2.051E-01 
2.191E+00   1.709E+00  2.035E-01 
2.216E+00   1.718E+00  2.020E-01 
2.242E+00   1.728E+00  2.004E-01 
2.268E+00   1.738E+00  1.988E-01 
2.294E+00   1.748E+00  1.973E-01 
2.321E+00   1.757E+00  1.957E-01 
2.348E+00   1.767E+00  1.942E-01 
2.375E+00   1.777E+00  1.926E-01 
2.402E+00   1.787E+00  1.911E-01 
2.430E+00   1.797E+00  1.896E-01 
2.458E+00   1.807E+00  1.881E-01 
2.487E+00   1.818E+00  1.866E-01 
2.516E+00   1.828E+00  1.851E-01 
2.545E+00   1.838E+00  1.837E-01 
2.574E+00   1.848E+00  1.822E-01 
2.604E+00   1.859E+00  1.808E-01 
2.635E+00   1.869E+00  1.793E-01 
2.665E+00   1.880E+00  1.779E-01 
2.696E+00   1.890E+00  1.765E-01 
2.727E+00   1.901E+00  1.751E-01 
2.759E+00   1.912E+00  1.737E-01 
2.791E+00   1.922E+00  1.723E-01 
2.823E+00   1.933E+00  1.709E-01 
2.856E+00   1.944E+00  1.695E-01 
2.889E+00   1.955E+00  1.681E-01 
2.923E+00   1.966E+00  1.668E-01 
2.957E+00   1.977E+00  1.654E-01 
2.991E+00   1.988E+00  1.641E-01 
3.026E+00   1.999E+00  1.628E-01 
3.061E+00   2.010E+00  1.615E-01 
3.096E+00   2.022E+00  1.602E-01 
3.132E+00   2.033E+00  1.588E-01 
3.168E+00   2.044E+00  1.576E-01 
3.205E+00   2.056E+00  1.563E-01 
3.242E+00   2.067E+00  1.550E-01 
3.280E+00   2.079E+00  1.537E-01 
3.318E+00   2.091E+00  1.525E-01 
3.356E+00   2.102E+00  1.512E-01 
3.395E+00   2.114E+00  1.500E-01 
3.435E+00   2.126E+00  1.488E-01 
3.475E+00   2.138E+00  1.475E-01 
3.515E+00   2.150E+00  1.463E-01 
3.556E+00   2.162E+00  1.451E-01 
3.597E+00   2.174E+00  1.439E-01 
3.639E+00   2.186E+00  1.427E-01 
3.681E+00   2.198E+00  1.416E-01 
3.724E+00   2.210E+00  1.191E-01 
3.767E+00   2.223E+00  1.182E-01 
3.810E+00   2.235E+00  1.172E-01 
3.855E+00   2.248E+00  1.162E-01 
3.899E+00   2.260E+00  1.153E-01 
3.945E+00   2.273E+00  1.144E-01 
3.990E+00   2.285E+00  1.134E-01 
4.037E+00   2.298E+00  1.125E-01 
4.083E+00   2.311E+00  1.116E-01 
4.131E+00   2.324E+00  1.107E-01 
4.179E+00   2.337E+00  1.097E-01 
4.227E+00   2.350E+00  1.088E-01 
4.276E+00   2.363E+00  1.079E-01 
4.326E+00   2.376E+00  1.071E-01 
4.376E+00   2.389E+00  1.062E-01 
4.427E+00   2.402E+00  1.053E-01 
4.478E+00   2.416E+00  1.044E-01 
4.530E+00   2.429E+00  1.036E-01 
4.583E+00   2.443E+00  1.027E-01 
4.636E+00   2.456E+00  1.018E-01 
4.690E+00   2.470E+00  1.010E-01 
4.744E+00   2.483E+00  1.001E-01 
4.799E+00   2.497E+00  9.931E-02 
4.855E+00   2.511E+00  9.848E-02 
4.911E+00   2.525E+00  9.766E-02 
4.968E+00   2.539E+00  9.684E-02 
5.026E+00   2.553E+00  9.603E-02 
5.084E+00   2.567E+00  9.522E-02 
5.143E+00   2.581E+00  9.442E-02 
5.202E+00   2.595E+00  9.363E-02 
5.263E+00   2.610E+00  9.284E-02 
5.324E+00   2.624E+00  9.206E-02 
5.386E+00   2.639E+00  9.128E-02 
5.448E+00   2.653E+00  9.051E-02 
5.511E+00   2.668E+00  8.974E-02 
5.575E+00   2.682E+00  8.898E-02 
5.640E+00   2.697E+00  8.823E-02 
5.705E+00   2.712E+00  8.748E-02 
5.771E+00   2.727E+00  8.674E-02 
5.838E+00   2.742E+00  8.600E-02 
5.906E+00   2.757E+00  8.527E-02 
5.975E+00   2.772E+00  8.454E-02 
6.044E+00   2.787E+00  8.382E-02 
6.114E+00   2.802E+00  8.310E-02 
6.185E+00   2.818E+00  8.239E-02 
6.257E+00   2.833E+00  8.169E-02 
6.329E+00   2.848E+00  8.099E-02 
6.403E+00   2.864E+00  8.029E-02 
6.477E+00   2.879E+00  7.960E-02 
6.552E+00   2.895E+00  7.892E-02 
6.628E+00   2.911E+00  7.824E-02 
6.705E+00   2.927E+00  7.757E-02 
6.783E+00   2.943E+00  7.690E-02 
6.861E+00   2.959E+00  7.624E-02 
6.941E+00   2.975E+00  7.558E-02 
7.021E+00   2.991E+00  7.493E-02 
7.103E+00   3.007E+00  7.428E-02 
7.185E+00   3.023E+00  7.364E-02 
7.269E+00   3.039E+00  7.300E-02 
7.353E+00   3.056E+00  7.236E-02 
7.438E+00   3.072E+00  7.174E-02 
7.524E+00   3.089E+00  7.111E-02 
7.612E+00   3.105E+00  7.050E-02 
7.700E+00   3.122E+00  6.988E-02 
7.789E+00   3.139E+00  6.927E-02 
7.880E+00   3.156E+00  6.867E-02 
7.971E+00   3.173E+00  6.807E-02 
8.064E+00   3.189E+00  6.748E-02 
8.157E+00   3.207E+00  6.689E-02 
8.252E+00   3.224E+00  6.630E-02 
8.347E+00   3.241E+00  6.572E-02 
8.444E+00   3.258E+00  6.514E-02 
8.542E+00   3.275E+00  6.457E-02 
8.641E+00   3.293E+00  6.401E-02 
8.741E+00   3.310E+00  6.344E-02 
8.843E+00   3.328E+00  6.289E-02 
8.945E+00   3.345E+00  6.233E-02 
9.049E+00   3.363E+00  6.178E-02 
9.154E+00   3.381E+00  6.124E-02 
9.260E+00   3.398E+00  6.070E-02 
9.368E+00   3.416E+00  6.016E-02 
9.476E+00   3.434E+00  5.963E-02 
9.586E+00   3.452E+00  5.910E-02 
9.698E+00   3.470E+00  5.858E-02 
9.810E+00   3.488E+00  5.806E-02 
9.924E+00   3.506E+00  5.755E-02 
1.004E+01   3.525E+00  5.704E-02 
1.016E+01   3.543E+00  5.653E-02 
1.027E+01   3.561E+00  5.603E-02 
1.039E+01   3.580E+00  5.553E-02 
1.051E+01   3.598E+00  5.504E-02 
1.063E+01   3.617E+00  5.455E-02 
1.076E+01   3.635E+00  5.406E-02 
1.088E+01   3.654E+00  5.358E-02 
1.101E+01   3.673E+00  5.310E-02 
1.114E+01   3.692E+00  5.263E-02 
1.127E+01   3.711E+00  5.216E-02 
1.140E+01   3.729E+00  5.169E-02 
1.153E+01   3.748E+00  5.123E-02 
1.166E+01   3.767E+00  5.077E-02 
1.180E+01   3.786E+00  5.031E-02 
1.193E+01   3.806E+00  4.986E-02 
1.207E+01   3.825E+00  4.941E-02 
1.221E+01   3.844E+00  4.897E-02 
1.235E+01   3.863E+00  4.853E-02 
1.250E+01   3.883E+00  4.809E-02 
1.264E+01   3.902E+00  4.766E-02 
1.279E+01   3.921E+00  4.723E-02 
1.294E+01   3.941E+00  4.681E-02 
1.309E+01   3.960E+00  4.638E-02 
1.324E+01   3.980E+00  4.597E-02 
1.339E+01   3.999E+00  4.555E-02 
1.355E+01   4.019E+00  4.514E-02 
1.371E+01   4.039E+00  4.473E-02 
1.387E+01   4.058E+00  4.433E-02 
1.403E+01   4.078E+00  4.393E-02 
1.419E+01   4.098E+00  4.353E-02 
1.435E+01   4.118E+00  4.313E-02 
1.452E+01   4.138E+00  4.274E-02 
1.469E+01   4.157E+00  4.235E-02 
1.486E+01   4.177E+00  4.197E-02 
1.503E+01   4.197E+00  4.159E-02 
1.521E+01   4.217E+00  4.121E-02 
1.538E+01   4.237E+00  4.083E-02 
1.556E+01   4.257E+00  4.046E-02 
1.574E+01   4.277E+00  4.009E-02 
1.592E+01   4.297E+00  3.973E-02 
1.611E+01   4.317E+00  3.937E-02 
1.629E+01   4.337E+00  3.901E-02 
1.648E+01   4.357E+00  3.865E-02 
1.667E+01   4.378E+00  3.830E-02 
1.687E+01   4.398E+00  3.795E-02 
1.706E+01   4.418E+00  3.760E-02 
1.726E+01   4.438E+00  3.726E-02 
1.746E+01   4.458E+00  3.691E-02 
1.766E+01   4.478E+00  3.658E-02 
1.787E+01   4.498E+00  3.624E-02 
1.808E+01   4.518E+00  3.591E-02 
1.829E+01   4.538E+00  3.558E-02 
1.850E+01   4.558E+00  3.525E-02 
1.871E+01   4.578E+00  3.493E-02 
1.893E+01   4.599E+00  3.461E-02 
1.915E+01   4.619E+00  3.429E-02 
1.937E+01   4.639E+00  3.397E-02 
1.960E+01   4.659E+00  3.366E-02 
1.982E+01   4.678E+00  3.335E-02 
2.005E+01   4.698E+00  3.304E-02 
2.029E+01   4.718E+00  3.274E-02 
2.052E+01   4.738E+00  3.243E-02 
2.076E+01   4.758E+00  3.213E-02 
2.100E+01   4.778E+00  3.184E-02 
2.124E+01   4.797E+00  3.154E-02 
2.149E+01   4.817E+00  3.125E-02 
2.174E+01   4.837E+00  3.096E-02 
2.199E+01   4.856E+00  3.067E-02 
2.225E+01   4.876E+00  3.039E-02 
2.250E+01   4.895E+00  3.011E-02 
2.277E+01   4.915E+00  2.983E-02 
2.303E+01   4.934E+00  2.955E-02 
2.330E+01   4.953E+00  2.928E-02 
2.357E+01   4.972E+00  2.901E-02 
2.384E+01   4.991E+00  2.874E-02 
2.412E+01   5.010E+00  2.847E-02 
2.440E+01   5.029E+00  2.820E-02 
2.468E+01   5.048E+00  2.794E-02 
2.497E+01   5.067E+00  2.768E-02 
2.526E+01   5.085E+00  2.742E-02 
2.555E+01   5.104E+00  2.717E-02 
2.584E+01   5.122E+00  2.691E-02 
2.614E+01   5.140E+00  2.666E-02 
2.645E+01   5.159E+00  2.641E-02 
2.675E+01   5.177E+00  2.617E-02 
2.707E+01   5.195E+00  2.592E-02 
2.738E+01   5.212E+00  2.568E-02 
2.770E+01   5.230E+00  2.544E-02 
2.802E+01   5.247E+00  2.520E-02 
2.834E+01   5.265E+00  2.497E-02 
2.867E+01   5.282E+00  2.473E-02 
2.900E+01   5.299E+00  2.450E-02 
2.934E+01   5.316E+00  2.427E-02 
2.968E+01   5.333E+00  2.404E-02 
3.003E+01   5.349E+00  2.382E-02 
3.037E+01   5.365E+00  2.359E-02 
3.073E+01   5.382E+00  2.337E-02 
3.108E+01   5.398E+00  2.315E-02 
3.144E+01   5.413E+00  2.293E-02 
3.181E+01   5.429E+00  2.272E-02 
3.218E+01   5.444E+00  2.250E-02 
3.255E+01   5.460E+00  2.229E-02 
3.293E+01   5.475E+00  2.208E-02 
3.331E+01   5.489E+00  2.187E-02 
3.370E+01   5.504E+00  2.167E-02 
3.409E+01   5.518E+00  2.146E-02 
3.448E+01   5.532E+00  2.126E-02 
3.488E+01   5.546E+00  2.106E-02 
3.529E+01   5.560E+00  2.086E-02 
3.570E+01   5.573E+00  2.066E-02 
3.611E+01   5.586E+00  2.047E-02 
3.653E+01   5.599E+00  2.027E-02 
3.695E+01   5.611E+00  2.008E-02 
3.738E+01   5.624E+00  1.989E-02 
3.781E+01   5.636E+00  1.970E-02 
3.825E+01   5.648E+00  1.952E-02 
3.870E+01   5.659E+00  1.933E-02 
3.915E+01   5.670E+00  1.915E-02 
3.960E+01   5.681E+00  1.897E-02 
4.006E+01   5.691E+00  1.879E-02 
4.052E+01   5.702E+00  1.861E-02 
4.099E+01   5.712E+00  1.843E-02 
4.147E+01   5.721E+00  1.826E-02 
4.195E+01   5.730E+00  1.808E-02 
4.244E+01   5.739E+00  1.791E-02 
4.293E+01   5.748E+00  1.774E-02 
4.343E+01   5.756E+00  1.757E-02 
4.393E+01   5.764E+00  1.740E-02 
4.444E+01   5.772E+00  1.724E-02 
4.496E+01   5.779E+00  1.707E-02 
4.548E+01   5.786E+00  1.691E-02 
4.600E+01   5.792E+00  1.675E-02 
4.654E+01   5.798E+00  1.659E-02 
4.708E+01   5.804E+00  1.643E-02 
4.762E+01   5.809E+00  1.628E-02 
4.818E+01   5.814E+00  1.612E-02 
4.873E+01   5.819E+00  1.597E-02 
4.930E+01   5.823E+00  1.581E-02 
4.987E+01   5.827E+00  1.566E-02 
5.045E+01   5.830E+00  1.551E-02 
5.104E+01   5.833E+00  1.536E-02 
5.163E+01   5.836E+00  1.522E-02 
5.223E+01   5.838E+00  1.507E-02 
5.283E+01   5.839E+00  1.493E-02 
5.344E+01   5.841E+00  1.478E-02 
5.406E+01   5.842E+00  1.464E-02 
5.469E+01   5.842E+00  1.450E-02 
5.533E+01   5.842E+00  1.436E-02 
5.597E+01   5.841E+00  1.422E-02 
5.662E+01   5.841E+00  1.409E-02 
5.727E+01   5.839E+00  1.395E-02 
5.794E+01   5.837E+00  1.382E-02 
5.861E+01   5.835E+00  1.368E-02 
5.929E+01   5.833E+00  1.355E-02 
5.998E+01   5.829E+00  1.342E-02 
6.067E+01   5.826E+00  1.329E-02 
6.138E+01   5.822E+00  1.317E-02 
6.209E+01   5.817E+00  1.304E-02 
6.281E+01   5.812E+00  1.291E-02 
6.354E+01   5.807E+00  1.279E-02 
6.427E+01   5.801E+00  1.267E-02 
6.502E+01   5.795E+00  1.254E-02 
6.577E+01   5.788E+00  1.242E-02 
6.654E+01   5.781E+00  1.230E-02 
6.731E+01   5.773E+00  1.218E-02 
6.809E+01   5.765E+00  1.207E-02 
6.888E+01   5.756E+00  1.195E-02 
6.968E+01   5.747E+00  1.183E-02 
7.049E+01   5.737E+00  1.172E-02 
7.130E+01   5.727E+00  1.161E-02 
7.213E+01   5.717E+00  1.149E-02 
7.297E+01   5.706E+00  1.138E-02 
7.381E+01   5.695E+00  1.127E-02 
7.467E+01   5.683E+00  1.116E-02 
7.554E+01   5.670E+00  1.106E-02 
7.641E+01   5.658E+00  1.095E-02 
7.730E+01   5.644E+00  1.084E-02 
7.820E+01   5.631E+00  1.074E-02 
7.910E+01   5.617E+00  1.063E-02 
8.002E+01   5.602E+00  1.053E-02 
8.095E+01   5.587E+00  1.043E-02 
8.189E+01   5.572E+00  1.033E-02 
8.284E+01   5.556E+00  1.023E-02 
8.380E+01   5.540E+00  1.013E-02 
8.477E+01   5.523E+00  1.003E-02 
8.575E+01   5.506E+00  9.931E-03 
8.675E+01   5.488E+00  9.834E-03 
8.775E+01   5.470E+00  9.738E-03 
8.877E+01   5.452E+00  9.644E-03 
8.980E+01   5.433E+00  9.550E-03 
9.084E+01   5.414E+00  9.457E-03 
9.190E+01   5.395E+00  9.365E-03 
9.296E+01   5.375E+00  9.273E-03 
9.404E+01   5.354E+00  9.183E-03 
9.513E+01   5.334E+00  9.093E-03 
9.624E+01   5.313E+00  9.005E-03 
9.735E+01   5.291E+00  8.917E-03 
9.848E+01   5.270E+00  8.830E-03 
9.962E+01   5.248E+00  8.744E-03 
1.008E+02   5.225E+00  8.658E-03 
1.019E+02   5.203E+00  8.574E-03 
1.031E+02   5.180E+00  8.490E-03 
1.043E+02   5.156E+00  8.407E-03 
1.055E+02   5.132E+00  8.325E-03 
1.068E+02   5.109E+00  8.243E-03 
1.080E+02   5.084E+00  8.163E-03 
1.093E+02   5.060E+00  8.083E-03 
1.105E+02   5.035E+00  8.004E-03 
1.118E+02   5.010E+00  7.925E-03 
1.131E+02   4.984E+00  7.848E-03 
1.144E+02   4.959E+00  7.771E-03 
1.157E+02   4.933E+00  7.695E-03 
1.171E+02   4.907E+00  7.619E-03 
1.184E+02   4.880E+00  7.545E-03 
1.198E+02   4.854E+00  7.471E-03 
1.212E+02   4.827E+00  7.397E-03 
1.226E+02   4.800E+00  7.325E-03 
1.240E+02   4.773E+00  7.253E-03 
1.255E+02   4.745E+00  7.182E-03 
1.269E+02   4.718E+00  7.111E-03 
1.284E+02   4.690E+00  7.041E-03 
1.299E+02   4.662E+00  6.972E-03 
1.314E+02   4.634E+00  6.904E-03 
1.329E+02   4.606E+00  6.836E-03 
1.345E+02   4.578E+00  6.769E-03 
1.360E+02   4.549E+00  6.702E-03 
1.376E+02   4.521E+00  6.636E-03 
1.392E+02   4.492E+00  6.571E-03 
1.408E+02   4.463E+00  6.506E-03 
1.424E+02   4.434E+00  6.442E-03 
1.441E+02   4.405E+00  6.379E-03 
1.458E+02   4.376E+00  6.316E-03 
1.475E+02   4.347E+00  6.253E-03 
1.492E+02   4.317E+00  6.192E-03 
1.509E+02   4.288E+00  6.131E-03 
1.526E+02   4.259E+00  6.070E-03 
1.544E+02   4.229E+00  6.010E-03 
1.562E+02   4.200E+00  5.951E-03 
1.580E+02   4.170E+00  5.892E-03 
1.598E+02   4.141E+00  5.834E-03 
1.617E+02   4.111E+00  5.777E-03 
1.636E+02   4.082E+00  5.719E-03 
1.655E+02   4.052E+00  5.663E-03 
1.674E+02   4.023E+00  5.607E-03 
1.693E+02   3.993E+00  5.552E-03 
1.713E+02   3.964E+00  5.497E-03 
1.733E+02   3.934E+00  5.442E-03 
1.753E+02   3.905E+00  5.388E-03 
1.773E+02   3.876E+00  5.335E-03 
1.794E+02   3.846E+00  5.282E-03 
1.815E+02   3.817E+00  5.230E-03 
1.836E+02   3.788E+00  5.178E-03 
1.857E+02   3.759E+00  5.127E-03 
1.879E+02   3.729E+00  5.076E-03 
1.900E+02   3.700E+00  5.026E-03 
1.922E+02   3.671E+00  4.976E-03 
1.945E+02   3.643E+00  4.927E-03 
1.967E+02   3.614E+00  4.878E-03 
1.990E+02   3.585E+00  4.829E-03 
2.013E+02   3.556E+00  4.781E-03 
2.036E+02   3.528E+00  4.734E-03 
2.060E+02   3.500E+00  4.687E-03 
2.084E+02   3.471E+00  4.640E-03 
2.108E+02   3.443E+00  4.594E-03 
2.133E+02   3.415E+00  4.549E-03 
2.157E+02   3.387E+00  4.503E-03 
2.182E+02   3.359E+00  4.459E-03 
2.208E+02   3.332E+00  4.414E-03 
2.233E+02   3.304E+00  4.370E-03 
2.259E+02   3.277E+00  4.327E-03 
2.285E+02   3.250E+00  4.284E-03 
2.312E+02   3.223E+00  4.241E-03 
2.339E+02   3.196E+00  4.199E-03 
2.366E+02   3.169E+00  4.157E-03 
2.393E+02   3.142E+00  4.116E-03 
2.421E+02   3.116E+00  4.075E-03 
2.449E+02   3.089E+00  4.034E-03 
2.478E+02   3.063E+00  3.994E-03 
2.506E+02   3.037E+00  3.954E-03 
2.535E+02   3.011E+00  3.915E-03 
2.565E+02   2.985E+00  3.876E-03 
2.595E+02   2.960E+00  3.837E-03 
2.625E+02   2.935E+00  3.799E-03 
2.655E+02   2.909E+00  3.761E-03 
2.686E+02   2.884E+00  3.723E-03 
2.717E+02   2.859E+00  3.686E-03 
2.749E+02   2.835E+00  3.649E-03 
2.780E+02   2.810E+00  3.613E-03 
2.813E+02   2.786E+00  3.577E-03 
2.845E+02   2.762E+00  3.541E-03 
2.878E+02   2.738E+00  3.506E-03 
2.912E+02   2.714E+00  3.471E-03 
2.945E+02   2.690E+00  3.436E-03 
2.980E+02   2.667E+00  3.402E-03 
3.014E+02   2.644E+00  3.368E-03 
3.049E+02   2.620E+00  3.334E-03 
3.085E+02   2.598E+00  3.301E-03 
3.120E+02   2.575E+00  3.268E-03 
3.156E+02   2.552E+00  3.235E-03 
3.193E+02   2.530E+00  3.202E-03 
3.230E+02   2.508E+00  3.170E-03 
3.268E+02   2.486E+00  3.139E-03 
3.306E+02   2.464E+00  3.107E-03 
3.344E+02   2.442E+00  3.076E-03 
3.383E+02   2.421E+00  3.045E-03 
3.422E+02   2.399E+00  3.015E-03 
3.462E+02   2.378E+00  2.984E-03 
3.502E+02   2.357E+00  2.954E-03 
3.542E+02   2.336E+00  2.925E-03 
3.583E+02   2.316E+00  2.895E-03 
3.625E+02   2.295E+00  2.866E-03 
3.667E+02   2.275E+00  2.838E-03 
3.710E+02   2.255E+00  2.809E-03 
3.753E+02   2.235E+00  2.781E-03 
3.796E+02   2.215E+00  2.753E-03 
3.840E+02   2.196E+00  2.725E-03 
3.885E+02   2.176E+00  2.698E-03 
3.930E+02   2.157E+00  2.671E-03 
3.975E+02   2.138E+00  2.644E-03 
4.021E+02   2.119E+00  2.617E-03 
4.068E+02   2.100E+00  2.591E-03 
4.115E+02   2.082E+00  2.565E-03 
4.163E+02   2.063E+00  2.539E-03 
4.211E+02   2.045E+00  2.514E-03 
4.260E+02   2.027E+00  2.488E-03 
4.310E+02   2.009E+00  2.463E-03 
4.360E+02   1.991E+00  2.438E-03 
4.410E+02   1.974E+00  2.414E-03 
4.461E+02   1.956E+00  2.390E-03 
4.513E+02   1.939E+00  2.366E-03 
4.565E+02   1.922E+00  2.342E-03 
4.618E+02   1.905E+00  2.318E-03 
4.672E+02   1.888E+00  2.295E-03 
4.726E+02   1.871E+00  2.272E-03 
4.781E+02   1.855E+00  2.249E-03 
4.836E+02   1.839E+00  2.226E-03 
4.892E+02   1.822E+00  2.204E-03 
4.949E+02   1.806E+00  2.181E-03 
5.007E+02   1.790E+00  2.159E-03 
5.065E+02   1.775E+00  2.137E-03 
5.123E+02   1.759E+00  2.116E-03 
5.183E+02   1.743E+00  2.095E-03 
5.243E+02   1.728E+00  2.073E-03 
5.304E+02   1.713E+00  2.052E-03 
5.365E+02   1.698E+00  2.032E-03 
5.428E+02   1.683E+00  2.011E-03 
5.490E+02   1.668E+00  1.991E-03 
5.554E+02   1.653E+00  1.971E-03 
5.619E+02   1.639E+00  1.951E-03 
5.684E+02   1.624E+00  1.931E-03 
5.750E+02   1.610E+00  1.912E-03 
5.816E+02   1.596E+00  1.892E-03 
5.884E+02   1.582E+00  1.873E-03 
5.952E+02   1.568E+00  1.854E-03 
6.021E+02   1.554E+00  1.835E-03 
6.091E+02   1.541E+00  1.817E-03 
6.162E+02   1.527E+00  1.798E-03 
6.233E+02   1.514E+00  1.780E-03 
6.305E+02   1.501E+00  1.762E-03 
6.378E+02   1.487E+00  1.744E-03 
6.452E+02   1.474E+00  1.727E-03 
6.527E+02   1.462E+00  1.709E-03 
6.603E+02   1.449E+00  1.692E-03 
6.680E+02   1.436E+00  1.675E-03 
6.757E+02   1.424E+00  1.658E-03 
6.835E+02   1.411E+00  1.641E-03 
6.915E+02   1.399E+00  1.624E-03 
6.995E+02   1.387E+00  1.608E-03 
7.076E+02   1.375E+00  1.591E-03 
7.158E+02   1.363E+00  1.575E-03 
7.241E+02   1.351E+00  1.559E-03 
7.325E+02   1.340E+00  1.543E-03 
7.410E+02   1.328E+00  1.528E-03 
7.496E+02   1.317E+00  1.512E-03 
7.583E+02   1.305E+00  1.497E-03 
7.671E+02   1.294E+00  1.482E-03 
7.760E+02   1.283E+00  1.467E-03 
7.850E+02   1.272E+00  1.452E-03 
7.941E+02   1.261E+00  1.437E-03 
8.033E+02   1.250E+00  1.422E-03 
8.126E+02   1.240E+00  1.408E-03 
8.221E+02   1.229E+00  1.394E-03 
