Ion = Helium      . Mass = 4.0026
Tgt = Hf (Solid). Density = 13.31 g/cm3
Stopping Units =  eV/(1E15 atoms/cm2)
Energy(keV)  S(Elec)    S(Nuc)
1.000E+00   4.211E+00  1.847E+00 
1.013E+00   4.238E+00  1.852E+00 
1.026E+00   4.266E+00  1.858E+00 
1.039E+00   4.293E+00  1.863E+00 
1.053E+00   4.321E+00  1.868E+00 
1.067E+00   4.349E+00  1.873E+00 
1.081E+00   4.377E+00  1.879E+00 
1.095E+00   4.406E+00  1.884E+00 
1.109E+00   4.434E+00  1.889E+00 
1.123E+00   4.463E+00  1.894E+00 
1.138E+00   4.492E+00  1.899E+00 
1.153E+00   4.521E+00  1.905E+00 
1.168E+00   4.550E+00  1.910E+00 
1.183E+00   4.580E+00  1.915E+00 
1.198E+00   4.609E+00  1.920E+00 
1.214E+00   4.639E+00  1.925E+00 
1.229E+00   4.669E+00  1.930E+00 
1.245E+00   4.699E+00  1.935E+00 
1.262E+00   4.730E+00  1.940E+00 
1.278E+00   4.761E+00  1.945E+00 
1.295E+00   4.791E+00  1.950E+00 
1.311E+00   4.822E+00  1.955E+00 
1.329E+00   4.854E+00  1.960E+00 
1.346E+00   4.885E+00  1.964E+00 
1.363E+00   4.917E+00  1.969E+00 
1.381E+00   4.949E+00  1.974E+00 
1.399E+00   4.981E+00  1.979E+00 
1.417E+00   5.013E+00  1.984E+00 
1.436E+00   5.045E+00  1.988E+00 
1.454E+00   5.078E+00  1.993E+00 
1.473E+00   5.111E+00  1.998E+00 
1.492E+00   5.144E+00  2.002E+00 
1.512E+00   5.177E+00  2.007E+00 
1.531E+00   5.211E+00  2.012E+00 
1.551E+00   5.245E+00  2.016E+00 
1.571E+00   5.279E+00  2.021E+00 
1.592E+00   5.313E+00  2.025E+00 
1.612E+00   5.347E+00  2.030E+00 
1.633E+00   5.382E+00  2.034E+00 
1.655E+00   5.417E+00  2.039E+00 
1.676E+00   5.452E+00  2.043E+00 
1.698E+00   5.487E+00  2.048E+00 
1.720E+00   5.523E+00  2.052E+00 
1.742E+00   5.558E+00  2.056E+00 
1.765E+00   5.594E+00  2.061E+00 
1.788E+00   5.631E+00  2.065E+00 
1.811E+00   5.667E+00  2.069E+00 
1.835E+00   5.704E+00  2.073E+00 
1.859E+00   5.741E+00  2.077E+00 
1.883E+00   5.778E+00  2.082E+00 
1.907E+00   5.815E+00  2.086E+00 
1.932E+00   5.853E+00  2.090E+00 
1.957E+00   5.891E+00  2.094E+00 
1.983E+00   5.929E+00  2.098E+00 
2.008E+00   5.967E+00  2.102E+00 
2.034E+00   6.006E+00  2.106E+00 
2.061E+00   6.045E+00  2.110E+00 
2.088E+00   6.084E+00  2.114E+00 
2.115E+00   6.124E+00  2.117E+00 
2.142E+00   6.163E+00  2.121E+00 
2.170E+00   6.203E+00  2.125E+00 
2.198E+00   6.243E+00  2.129E+00 
2.227E+00   6.284E+00  2.132E+00 
2.256E+00   6.325E+00  2.136E+00 
2.285E+00   6.365E+00  2.140E+00 
2.315E+00   6.407E+00  2.143E+00 
2.345E+00   6.448E+00  2.147E+00 
2.375E+00   6.490E+00  2.150E+00 
2.406E+00   6.532E+00  2.154E+00 
2.438E+00   6.574E+00  2.157E+00 
2.469E+00   6.617E+00  2.161E+00 
2.501E+00   6.660E+00  2.164E+00 
2.534E+00   6.703E+00  2.167E+00 
2.567E+00   6.746E+00  2.170E+00 
2.600E+00   6.790E+00  2.174E+00 
2.634E+00   6.834E+00  2.177E+00 
2.668E+00   6.878E+00  2.180E+00 
2.703E+00   6.923E+00  2.183E+00 
2.738E+00   6.968E+00  2.186E+00 
2.773E+00   7.013E+00  2.189E+00 
2.810E+00   7.058E+00  2.192E+00 
2.846E+00   7.104E+00  2.195E+00 
2.883E+00   7.150E+00  2.198E+00 
2.921E+00   7.196E+00  2.201E+00 
2.958E+00   7.243E+00  2.204E+00 
2.997E+00   7.290E+00  2.206E+00 
3.036E+00   7.337E+00  2.209E+00 
3.075E+00   7.385E+00  2.212E+00 
3.115E+00   7.432E+00  2.214E+00 
3.156E+00   7.481E+00  2.217E+00 
3.197E+00   7.529E+00  2.219E+00 
3.238E+00   7.578E+00  2.222E+00 
3.280E+00   7.627E+00  2.224E+00 
3.323E+00   7.676E+00  2.227E+00 
3.366E+00   7.726E+00  2.229E+00 
3.410E+00   7.776E+00  2.231E+00 
3.454E+00   7.826E+00  2.234E+00 
3.499E+00   7.877E+00  2.236E+00 
3.545E+00   7.928E+00  2.238E+00 
3.591E+00   7.979E+00  2.240E+00 
3.637E+00   8.031E+00  2.242E+00 
3.685E+00   8.083E+00  2.244E+00 
3.733E+00   8.135E+00  2.246E+00 
3.781E+00   8.188E+00  2.248E+00 
3.830E+00   8.241E+00  2.250E+00 
3.880E+00   8.295E+00  2.252E+00 
3.930E+00   8.348E+00  2.253E+00 
3.982E+00   8.402E+00  2.255E+00 
4.033E+00   8.457E+00  2.257E+00 
4.086E+00   8.512E+00  2.258E+00 
4.139E+00   8.567E+00  2.260E+00 
4.193E+00   8.622E+00  2.261E+00 
4.247E+00   8.678E+00  2.263E+00 
4.302E+00   8.734E+00  2.264E+00 
4.358E+00   8.791E+00  2.265E+00 
4.415E+00   8.848E+00  2.267E+00 
4.472E+00   8.905E+00  2.268E+00 
4.530E+00   8.963E+00  2.269E+00 
4.589E+00   9.021E+00  2.270E+00 
4.649E+00   9.079E+00  2.271E+00 
4.709E+00   9.138E+00  2.272E+00 
4.770E+00   9.197E+00  2.273E+00 
4.832E+00   9.257E+00  2.274E+00 
4.895E+00   9.317E+00  2.275E+00 
4.959E+00   9.377E+00  2.275E+00 
5.023E+00   9.438E+00  2.276E+00 
5.089E+00   9.499E+00  2.277E+00 
5.155E+00   9.561E+00  2.277E+00 
5.222E+00   9.622E+00  2.278E+00 
5.290E+00   9.685E+00  2.278E+00 
5.358E+00   9.748E+00  2.279E+00 
5.428E+00   9.811E+00  2.279E+00 
5.499E+00   9.874E+00  2.279E+00 
5.570E+00   9.938E+00  2.280E+00 
5.642E+00   1.000E+01  2.280E+00 
5.716E+00   1.007E+01  2.280E+00 
5.790E+00   1.013E+01  2.280E+00 
5.865E+00   1.020E+01  2.280E+00 
5.942E+00   1.026E+01  2.280E+00 
6.019E+00   1.033E+01  2.280E+00 
6.097E+00   1.040E+01  2.279E+00 
6.176E+00   1.046E+01  2.279E+00 
6.256E+00   1.053E+01  2.279E+00 
6.338E+00   1.060E+01  2.279E+00 
6.420E+00   1.067E+01  2.278E+00 
6.504E+00   1.074E+01  2.278E+00 
6.588E+00   1.081E+01  2.277E+00 
6.674E+00   1.088E+01  2.276E+00 
6.760E+00   1.095E+01  2.276E+00 
6.848E+00   1.102E+01  2.275E+00 
6.937E+00   1.109E+01  2.274E+00 
7.027E+00   1.116E+01  2.273E+00 
7.119E+00   1.124E+01  2.272E+00 
7.211E+00   1.131E+01  2.271E+00 
7.305E+00   1.138E+01  2.270E+00 
7.400E+00   1.145E+01  2.269E+00 
7.496E+00   1.153E+01  2.268E+00 
7.594E+00   1.160E+01  2.267E+00 
7.692E+00   1.168E+01  2.265E+00 
7.792E+00   1.175E+01  2.264E+00 
7.894E+00   1.183E+01  2.263E+00 
7.996E+00   1.191E+01  2.261E+00 
8.100E+00   1.200E+01  2.259E+00 
8.205E+00   1.209E+01  2.258E+00 
8.312E+00   1.218E+01  2.256E+00 
8.420E+00   1.227E+01  2.254E+00 
8.529E+00   1.237E+01  2.253E+00 
8.640E+00   1.246E+01  2.251E+00 
8.753E+00   1.255E+01  2.249E+00 
8.866E+00   1.265E+01  2.247E+00 
8.982E+00   1.275E+01  2.245E+00 
9.098E+00   1.284E+01  2.242E+00 
9.217E+00   1.294E+01  2.240E+00 
9.336E+00   1.304E+01  2.238E+00 
9.458E+00   1.314E+01  2.236E+00 
9.581E+00   1.324E+01  2.233E+00 
9.705E+00   1.334E+01  2.231E+00 
9.831E+00   1.344E+01  2.228E+00 
9.959E+00   1.355E+01  2.225E+00 
1.009E+01   1.365E+01  2.223E+00 
1.022E+01   1.375E+01  2.220E+00 
1.035E+01   1.386E+01  2.217E+00 
1.049E+01   1.397E+01  2.214E+00 
1.062E+01   1.407E+01  2.211E+00 
1.076E+01   1.418E+01  2.208E+00 
1.090E+01   1.429E+01  2.205E+00 
1.104E+01   1.440E+01  2.202E+00 
1.119E+01   1.451E+01  2.199E+00 
1.133E+01   1.462E+01  2.196E+00 
1.148E+01   1.473E+01  2.193E+00 
1.163E+01   1.485E+01  2.189E+00 
1.178E+01   1.496E+01  2.186E+00 
1.193E+01   1.508E+01  2.182E+00 
1.209E+01   1.519E+01  2.179E+00 
1.224E+01   1.531E+01  2.175E+00 
1.240E+01   1.543E+01  2.171E+00 
1.256E+01   1.554E+01  2.168E+00 
1.273E+01   1.566E+01  2.164E+00 
1.289E+01   1.578E+01  2.160E+00 
1.306E+01   1.591E+01  2.156E+00 
1.323E+01   1.603E+01  2.152E+00 
1.340E+01   1.615E+01  2.148E+00 
1.358E+01   1.628E+01  2.144E+00 
1.375E+01   1.640E+01  2.140E+00 
1.393E+01   1.653E+01  2.135E+00 
1.411E+01   1.666E+01  2.131E+00 
1.430E+01   1.678E+01  2.127E+00 
1.448E+01   1.691E+01  2.122E+00 
1.467E+01   1.705E+01  2.118E+00 
1.486E+01   1.718E+01  2.113E+00 
1.505E+01   1.731E+01  2.109E+00 
1.525E+01   1.744E+01  2.104E+00 
1.545E+01   1.758E+01  2.099E+00 
1.565E+01   1.771E+01  2.094E+00 
1.585E+01   1.785E+01  2.090E+00 
1.606E+01   1.799E+01  2.085E+00 
1.627E+01   1.813E+01  2.080E+00 
1.648E+01   1.827E+01  2.075E+00 
1.669E+01   1.841E+01  2.070E+00 
1.691E+01   1.855E+01  2.065E+00 
1.713E+01   1.870E+01  2.059E+00 
1.735E+01   1.884E+01  2.054E+00 
1.758E+01   1.899E+01  2.049E+00 
1.781E+01   1.914E+01  2.044E+00 
1.804E+01   1.928E+01  2.038E+00 
1.827E+01   1.943E+01  2.033E+00 
1.851E+01   1.959E+01  2.027E+00 
1.875E+01   1.974E+01  2.022E+00 
1.899E+01   1.989E+01  2.016E+00 
1.924E+01   2.005E+01  2.011E+00 
1.949E+01   2.020E+01  2.005E+00 
1.974E+01   2.036E+01  1.999E+00 
2.000E+01   2.052E+01  1.993E+00 
2.026E+01   2.068E+01  1.987E+00 
2.052E+01   2.084E+01  1.982E+00 
2.079E+01   2.100E+01  1.976E+00 
2.106E+01   2.116E+01  1.970E+00 
2.133E+01   2.133E+01  1.964E+00 
2.161E+01   2.149E+01  1.957E+00 
2.189E+01   2.166E+01  1.951E+00 
2.218E+01   2.183E+01  1.945E+00 
2.247E+01   2.200E+01  1.939E+00 
2.276E+01   2.217E+01  1.933E+00 
2.305E+01   2.234E+01  1.926E+00 
2.335E+01   2.252E+01  1.920E+00 
2.366E+01   2.269E+01  1.914E+00 
2.396E+01   2.287E+01  1.907E+00 
2.428E+01   2.305E+01  1.901E+00 
2.459E+01   2.323E+01  1.894E+00 
2.491E+01   2.341E+01  1.888E+00 
2.523E+01   2.359E+01  1.881E+00 
2.556E+01   2.378E+01  1.874E+00 
2.589E+01   2.396E+01  1.868E+00 
2.623E+01   2.415E+01  1.861E+00 
2.657E+01   2.434E+01  1.854E+00 
2.692E+01   2.453E+01  1.848E+00 
2.727E+01   2.472E+01  1.841E+00 
2.762E+01   2.491E+01  1.834E+00 
2.798E+01   2.511E+01  1.827E+00 
2.834E+01   2.530E+01  1.820E+00 
2.871E+01   2.550E+01  1.813E+00 
2.909E+01   2.570E+01  1.806E+00 
2.946E+01   2.590E+01  1.799E+00 
2.985E+01   2.610E+01  1.792E+00 
3.023E+01   2.631E+01  1.785E+00 
3.063E+01   2.651E+01  1.778E+00 
3.103E+01   2.672E+01  1.771E+00 
3.143E+01   2.693E+01  1.763E+00 
3.184E+01   2.714E+01  1.756E+00 
3.225E+01   2.735E+01  1.749E+00 
3.267E+01   2.756E+01  1.742E+00 
3.309E+01   2.778E+01  1.734E+00 
3.352E+01   2.800E+01  1.727E+00 
3.396E+01   2.821E+01  1.720E+00 
3.440E+01   2.844E+01  1.712E+00 
3.485E+01   2.866E+01  1.705E+00 
3.530E+01   2.888E+01  1.698E+00 
3.576E+01   2.911E+01  1.690E+00 
3.623E+01   2.933E+01  1.683E+00 
3.670E+01   2.956E+01  1.675E+00 
3.717E+01   2.979E+01  1.668E+00 
3.766E+01   3.003E+01  1.660E+00 
3.815E+01   3.026E+01  1.653E+00 
3.864E+01   3.050E+01  1.645E+00 
3.914E+01   3.074E+01  1.638E+00 
3.965E+01   3.098E+01  1.630E+00 
4.017E+01   3.122E+01  1.622E+00 
4.069E+01   3.146E+01  1.615E+00 
4.122E+01   3.171E+01  1.607E+00 
4.175E+01   3.195E+01  1.600E+00 
4.230E+01   3.220E+01  1.592E+00 
4.285E+01   3.245E+01  1.584E+00 
4.340E+01   3.271E+01  1.576E+00 
4.397E+01   3.296E+01  1.569E+00 
4.454E+01   3.322E+01  1.561E+00 
4.512E+01   3.348E+01  1.553E+00 
4.570E+01   3.374E+01  1.546E+00 
4.630E+01   3.400E+01  1.538E+00 
4.690E+01   3.427E+01  1.530E+00 
4.751E+01   3.453E+01  1.522E+00 
4.813E+01   3.480E+01  1.515E+00 
4.875E+01   3.507E+01  1.507E+00 
4.939E+01   3.535E+01  1.499E+00 
5.003E+01   3.562E+01  1.491E+00 
5.068E+01   3.590E+01  1.484E+00 
5.134E+01   3.618E+01  1.476E+00 
5.200E+01   3.646E+01  1.468E+00 
5.268E+01   3.674E+01  1.460E+00 
5.336E+01   3.702E+01  1.452E+00 
5.406E+01   3.731E+01  1.445E+00 
5.476E+01   3.760E+01  1.437E+00 
5.547E+01   3.789E+01  1.429E+00 
5.619E+01   3.819E+01  1.421E+00 
5.692E+01   3.848E+01  1.413E+00 
5.766E+01   3.878E+01  1.406E+00 
5.841E+01   3.908E+01  1.398E+00 
5.917E+01   3.938E+01  1.390E+00 
5.994E+01   3.969E+01  1.382E+00 
6.072E+01   3.999E+01  1.374E+00 
6.151E+01   4.030E+01  1.367E+00 
6.231E+01   4.061E+01  1.359E+00 
6.312E+01   4.092E+01  1.351E+00 
6.394E+01   4.124E+01  1.343E+00 
6.477E+01   4.156E+01  1.335E+00 
6.561E+01   4.188E+01  1.328E+00 
6.646E+01   4.220E+01  1.320E+00 
6.733E+01   4.252E+01  1.312E+00 
6.820E+01   4.285E+01  1.305E+00 
6.909E+01   4.318E+01  1.297E+00 
6.999E+01   4.351E+01  1.289E+00 
7.090E+01   4.384E+01  1.281E+00 
7.182E+01   4.418E+01  1.274E+00 
7.275E+01   4.451E+01  1.266E+00 
7.370E+01   4.485E+01  1.258E+00 
7.465E+01   4.520E+01  1.251E+00 
7.562E+01   4.554E+01  1.243E+00 
7.661E+01   4.589E+01  1.235E+00 
7.760E+01   4.624E+01  1.228E+00 
7.861E+01   4.659E+01  1.220E+00 
7.963E+01   4.694E+01  1.213E+00 
8.067E+01   4.730E+01  1.205E+00 
8.172E+01   4.766E+01  1.197E+00 
8.278E+01   4.802E+01  1.190E+00 
8.385E+01   4.838E+01  1.182E+00 
8.494E+01   4.874E+01  1.175E+00 
8.605E+01   4.911E+01  1.167E+00 
8.717E+01   4.948E+01  1.160E+00 
8.830E+01   4.985E+01  1.152E+00 
8.945E+01   5.023E+01  1.145E+00 
9.061E+01   5.061E+01  1.138E+00 
9.179E+01   5.099E+01  1.130E+00 
9.298E+01   5.137E+01  1.123E+00 
9.419E+01   5.175E+01  1.115E+00 
9.541E+01   5.214E+01  1.108E+00 
9.665E+01   5.253E+01  1.101E+00 
9.791E+01   5.292E+01  1.093E+00 
9.918E+01   5.331E+01  1.086E+00 
1.005E+02   5.371E+01  1.079E+00 
1.018E+02   5.410E+01  1.072E+00 
1.031E+02   5.451E+01  1.064E+00 
1.044E+02   5.491E+01  1.057E+00 
1.058E+02   5.531E+01  1.050E+00 
1.072E+02   5.572E+01  1.043E+00 
1.086E+02   5.613E+01  1.036E+00 
1.100E+02   5.654E+01  1.029E+00 
1.114E+02   5.696E+01  1.022E+00 
1.129E+02   5.737E+01  1.015E+00 
1.143E+02   5.779E+01  1.008E+00 
1.158E+02   5.821E+01  1.001E+00 
1.173E+02   5.863E+01  9.936E-01 
1.188E+02   5.906E+01  9.866E-01 
1.204E+02   5.949E+01  9.797E-01 
1.219E+02   5.992E+01  9.728E-01 
1.235E+02   6.035E+01  9.659E-01 
1.251E+02   6.078E+01  9.591E-01 
1.268E+02   6.122E+01  9.523E-01 
1.284E+02   6.166E+01  9.455E-01 
1.301E+02   6.210E+01  9.387E-01 
1.318E+02   6.254E+01  9.320E-01 
1.335E+02   6.299E+01  9.252E-01 
1.352E+02   6.343E+01  9.186E-01 
1.370E+02   6.388E+01  9.119E-01 
1.388E+02   6.433E+01  9.053E-01 
1.406E+02   6.479E+01  8.987E-01 
1.424E+02   6.524E+01  8.921E-01 
1.442E+02   6.570E+01  8.855E-01 
1.461E+02   6.616E+01  8.790E-01 
1.480E+02   6.662E+01  8.725E-01 
1.499E+02   6.708E+01  8.661E-01 
1.519E+02   6.755E+01  8.597E-01 
1.539E+02   6.801E+01  8.533E-01 
1.559E+02   6.848E+01  8.469E-01 
1.579E+02   6.895E+01  8.405E-01 
1.599E+02   6.942E+01  8.342E-01 
1.620E+02   6.990E+01  8.280E-01 
1.641E+02   7.037E+01  8.217E-01 
1.662E+02   7.085E+01  8.155E-01 
1.684E+02   7.133E+01  8.093E-01 
1.706E+02   7.181E+01  8.031E-01 
1.728E+02   7.229E+01  7.970E-01 
1.751E+02   7.277E+01  7.909E-01 
1.773E+02   7.326E+01  7.848E-01 
1.796E+02   7.374E+01  7.788E-01 
1.820E+02   7.423E+01  7.728E-01 
1.843E+02   7.472E+01  7.668E-01 
1.867E+02   7.521E+01  7.609E-01 
1.892E+02   7.570E+01  7.550E-01 
1.916E+02   7.619E+01  7.491E-01 
1.941E+02   7.669E+01  7.432E-01 
1.966E+02   7.718E+01  7.374E-01 
1.992E+02   7.768E+01  7.316E-01 
2.018E+02   7.817E+01  7.259E-01 
2.044E+02   7.867E+01  7.201E-01 
2.071E+02   7.917E+01  7.144E-01 
2.097E+02   7.967E+01  7.088E-01 
2.125E+02   8.017E+01  7.032E-01 
2.152E+02   8.067E+01  6.976E-01 
2.180E+02   8.117E+01  6.920E-01 
2.209E+02   8.168E+01  6.865E-01 
2.237E+02   8.218E+01  6.809E-01 
2.266E+02   8.268E+01  6.755E-01 
2.296E+02   8.319E+01  6.700E-01 
2.326E+02   8.369E+01  6.646E-01 
2.356E+02   8.420E+01  6.592E-01 
2.387E+02   8.470E+01  6.539E-01 
2.418E+02   8.521E+01  6.486E-01 
2.449E+02   8.571E+01  6.433E-01 
2.481E+02   8.622E+01  6.381E-01 
2.513E+02   8.672E+01  6.328E-01 
2.546E+02   8.723E+01  6.277E-01 
2.579E+02   8.773E+01  6.225E-01 
2.612E+02   8.824E+01  6.174E-01 
2.646E+02   8.874E+01  6.123E-01 
2.681E+02   8.925E+01  6.072E-01 
2.716E+02   8.975E+01  6.022E-01 
2.751E+02   9.025E+01  5.972E-01 
2.787E+02   9.075E+01  5.922E-01 
2.823E+02   9.125E+01  5.873E-01 
2.859E+02   9.176E+01  5.824E-01 
2.897E+02   9.225E+01  5.775E-01 
2.934E+02   9.275E+01  5.727E-01 
2.972E+02   9.325E+01  5.679E-01 
3.011E+02   9.375E+01  5.631E-01 
3.050E+02   9.424E+01  5.583E-01 
3.090E+02   9.474E+01  5.536E-01 
3.130E+02   9.523E+01  5.489E-01 
3.171E+02   9.572E+01  5.443E-01 
3.212E+02   9.621E+01  5.397E-01 
3.254E+02   9.669E+01  5.351E-01 
3.296E+02   9.718E+01  5.305E-01 
3.339E+02   9.766E+01  5.260E-01 
3.382E+02   9.814E+01  5.215E-01 
3.426E+02   9.862E+01  5.170E-01 
3.471E+02   9.910E+01  5.126E-01 
3.516E+02   9.957E+01  5.082E-01 
3.561E+02   1.000E+02  5.038E-01 
3.608E+02   1.005E+02  4.994E-01 
3.655E+02   1.010E+02  4.951E-01 
3.702E+02   1.014E+02  4.908E-01 
3.750E+02   1.019E+02  4.866E-01 
3.799E+02   1.024E+02  4.823E-01 
3.848E+02   1.028E+02  4.781E-01 
3.898E+02   1.033E+02  4.740E-01 
3.949E+02   1.037E+02  4.698E-01 
4.000E+02   1.042E+02  4.657E-01 
4.052E+02   1.046E+02  4.616E-01 
4.105E+02   1.050E+02  4.576E-01 
4.158E+02   1.055E+02  4.535E-01 
4.212E+02   1.059E+02  4.495E-01 
4.267E+02   1.063E+02  4.456E-01 
4.323E+02   1.068E+02  4.416E-01 
4.379E+02   1.072E+02  4.377E-01 
4.436E+02   1.076E+02  4.339E-01 
4.493E+02   1.080E+02  4.300E-01 
4.552E+02   1.084E+02  4.262E-01 
4.611E+02   1.088E+02  4.224E-01 
4.671E+02   1.092E+02  4.186E-01 
4.731E+02   1.096E+02  4.149E-01 
4.793E+02   1.100E+02  4.112E-01 
4.855E+02   1.104E+02  4.075E-01 
4.918E+02   1.107E+02  4.038E-01 
4.982E+02   1.111E+02  4.002E-01 
5.047E+02   1.115E+02  3.966E-01 
5.113E+02   1.118E+02  3.930E-01 
5.179E+02   1.122E+02  3.895E-01 
5.246E+02   1.125E+02  3.926E-01 
5.315E+02   1.129E+02  3.890E-01 
5.384E+02   1.132E+02  3.855E-01 
5.454E+02   1.136E+02  3.820E-01 
5.524E+02   1.139E+02  3.785E-01 
5.596E+02   1.142E+02  3.750E-01 
5.669E+02   1.145E+02  3.716E-01 
5.743E+02   1.148E+02  3.682E-01 
5.817E+02   1.151E+02  3.648E-01 
5.893E+02   1.154E+02  3.615E-01 
5.969E+02   1.157E+02  3.581E-01 
6.047E+02   1.160E+02  3.548E-01 
6.126E+02   1.163E+02  3.515E-01 
6.205E+02   1.165E+02  3.483E-01 
6.286E+02   1.168E+02  3.451E-01 
6.368E+02   1.170E+02  3.419E-01 
6.450E+02   1.173E+02  3.387E-01 
6.534E+02   1.175E+02  3.355E-01 
6.619E+02   1.178E+02  3.324E-01 
6.705E+02   1.180E+02  3.293E-01 
6.792E+02   1.182E+02  3.262E-01 
6.881E+02   1.184E+02  3.232E-01 
6.970E+02   1.186E+02  3.202E-01 
7.061E+02   1.188E+02  3.172E-01 
7.152E+02   1.190E+02  3.142E-01 
7.245E+02   1.192E+02  3.112E-01 
7.339E+02   1.193E+02  3.083E-01 
7.435E+02   1.195E+02  3.054E-01 
7.531E+02   1.197E+02  3.025E-01 
7.629E+02   1.198E+02  2.997E-01 
7.728E+02   1.199E+02  2.968E-01 
7.829E+02   1.201E+02  2.940E-01 
7.931E+02   1.202E+02  2.912E-01 
8.034E+02   1.203E+02  2.885E-01 
8.138E+02   1.204E+02  2.857E-01 
8.244E+02   1.205E+02  2.830E-01 
8.351E+02   1.206E+02  2.803E-01 
8.460E+02   1.207E+02  2.776E-01 
8.570E+02   1.208E+02  2.750E-01 
8.681E+02   1.208E+02  2.724E-01 
8.794E+02   1.209E+02  2.697E-01 
8.908E+02   1.209E+02  2.672E-01 
9.024E+02   1.210E+02  2.646E-01 
9.141E+02   1.210E+02  2.621E-01 
9.260E+02   1.210E+02  2.595E-01 
9.380E+02   1.211E+02  2.570E-01 
9.502E+02   1.211E+02  2.546E-01 
9.626E+02   1.211E+02  2.521E-01 
9.751E+02   1.211E+02  2.497E-01 
9.877E+02   1.210E+02  2.473E-01 
1.001E+03   1.210E+02  2.449E-01 
1.014E+03   1.210E+02  2.425E-01 
1.027E+03   1.209E+02  2.402E-01 
1.040E+03   1.209E+02  2.378E-01 
1.054E+03   1.208E+02  2.355E-01 
1.067E+03   1.208E+02  2.332E-01 
1.081E+03   1.207E+02  2.310E-01 
1.095E+03   1.206E+02  2.287E-01 
1.109E+03   1.205E+02  2.265E-01 
1.124E+03   1.204E+02  2.243E-01 
1.138E+03   1.203E+02  2.221E-01 
1.153E+03   1.202E+02  2.199E-01 
1.168E+03   1.201E+02  2.177E-01 
1.183E+03   1.199E+02  2.156E-01 
1.199E+03   1.198E+02  2.135E-01 
1.214E+03   1.196E+02  2.114E-01 
1.230E+03   1.195E+02  2.093E-01 
1.246E+03   1.193E+02  2.073E-01 
1.262E+03   1.192E+02  2.052E-01 
1.279E+03   1.190E+02  2.032E-01 
1.295E+03   1.188E+02  2.012E-01 
1.312E+03   1.186E+02  1.992E-01 
1.329E+03   1.184E+02  1.972E-01 
1.347E+03   1.182E+02  1.953E-01 
1.364E+03   1.180E+02  1.934E-01 
1.382E+03   1.177E+02  1.914E-01 
1.400E+03   1.175E+02  1.895E-01 
1.418E+03   1.173E+02  1.877E-01 
1.436E+03   1.170E+02  1.858E-01 
1.455E+03   1.168E+02  1.840E-01 
1.474E+03   1.165E+02  1.821E-01 
1.493E+03   1.163E+02  1.803E-01 
1.513E+03   1.160E+02  1.785E-01 
1.532E+03   1.157E+02  1.767E-01 
1.552E+03   1.154E+02  1.750E-01 
1.572E+03   1.151E+02  1.732E-01 
1.593E+03   1.148E+02  1.715E-01 
1.613E+03   1.145E+02  1.698E-01 
1.634E+03   1.142E+02  1.681E-01 
1.656E+03   1.139E+02  1.664E-01 
1.677E+03   1.136E+02  1.647E-01 
1.699E+03   1.133E+02  1.631E-01 
1.721E+03   1.129E+02  1.614E-01 
1.743E+03   1.126E+02  1.598E-01 
1.766E+03   1.122E+02  1.582E-01 
1.789E+03   1.119E+02  1.566E-01 
1.812E+03   1.115E+02  1.550E-01 
1.836E+03   1.112E+02  1.535E-01 
1.860E+03   1.108E+02  1.519E-01 
