Ion = Hydrogen    . Mass = 1.0079
Tgt = Sr (Solid). Density = 2.6 g/cm3
Stopping Units =  eV/(1E15 atoms/cm2)
Energy(keV)  S(Elec)    S(Nuc)
1.000E+00   8.383E+00  3.671E-01 
1.012E+00   8.432E+00  3.672E-01 
1.023E+00   8.480E+00  3.673E-01 
1.035E+00   8.529E+00  3.674E-01 
1.047E+00   8.579E+00  3.674E-01 
1.059E+00   8.628E+00  3.675E-01 
1.072E+00   8.678E+00  3.675E-01 
1.084E+00   8.728E+00  3.676E-01 
1.097E+00   8.779E+00  3.676E-01 
1.109E+00   8.830E+00  3.676E-01 
1.122E+00   8.881E+00  3.676E-01 
1.135E+00   8.932E+00  3.677E-01 
1.148E+00   8.984E+00  3.677E-01 
1.162E+00   9.036E+00  3.677E-01 
1.175E+00   9.088E+00  3.677E-01 
1.189E+00   9.140E+00  3.676E-01 
1.203E+00   9.193E+00  3.676E-01 
1.217E+00   9.246E+00  3.676E-01 
1.231E+00   9.300E+00  3.676E-01 
1.245E+00   9.354E+00  3.675E-01 
1.259E+00   9.408E+00  3.675E-01 
1.274E+00   9.462E+00  3.674E-01 
1.289E+00   9.517E+00  3.673E-01 
1.304E+00   9.572E+00  3.673E-01 
1.319E+00   9.627E+00  3.672E-01 
1.334E+00   9.683E+00  3.671E-01 
1.350E+00   9.739E+00  3.670E-01 
1.365E+00   9.795E+00  3.669E-01 
1.381E+00   9.852E+00  3.668E-01 
1.397E+00   9.909E+00  3.667E-01 
1.413E+00   9.966E+00  3.665E-01 
1.430E+00   1.002E+01  3.664E-01 
1.446E+00   1.008E+01  3.663E-01 
1.463E+00   1.014E+01  3.661E-01 
1.480E+00   1.020E+01  3.660E-01 
1.497E+00   1.026E+01  3.658E-01 
1.515E+00   1.032E+01  3.656E-01 
1.532E+00   1.038E+01  3.655E-01 
1.550E+00   1.044E+01  3.653E-01 
1.568E+00   1.050E+01  3.651E-01 
1.586E+00   1.056E+01  3.649E-01 
1.605E+00   1.062E+01  3.647E-01 
1.623E+00   1.068E+01  3.645E-01 
1.642E+00   1.074E+01  3.642E-01 
1.661E+00   1.080E+01  3.640E-01 
1.680E+00   1.087E+01  3.638E-01 
1.700E+00   1.093E+01  3.635E-01 
1.719E+00   1.099E+01  3.633E-01 
1.739E+00   1.106E+01  3.630E-01 
1.760E+00   1.112E+01  3.627E-01 
1.780E+00   1.118E+01  3.625E-01 
1.801E+00   1.125E+01  3.622E-01 
1.822E+00   1.131E+01  3.619E-01 
1.843E+00   1.138E+01  3.616E-01 
1.864E+00   1.145E+01  3.613E-01 
1.886E+00   1.151E+01  3.610E-01 
1.908E+00   1.158E+01  3.606E-01 
1.930E+00   1.165E+01  3.603E-01 
1.952E+00   1.171E+01  3.600E-01 
1.975E+00   1.178E+01  3.596E-01 
1.998E+00   1.185E+01  3.593E-01 
2.021E+00   1.192E+01  3.589E-01 
2.044E+00   1.199E+01  3.585E-01 
2.068E+00   1.206E+01  3.582E-01 
2.092E+00   1.213E+01  3.578E-01 
2.116E+00   1.220E+01  3.574E-01 
2.141E+00   1.227E+01  3.570E-01 
2.166E+00   1.235E+01  3.566E-01 
2.191E+00   1.242E+01  3.562E-01 
2.216E+00   1.249E+01  3.557E-01 
2.242E+00   1.257E+01  3.553E-01 
2.268E+00   1.264E+01  3.549E-01 
2.294E+00   1.272E+01  3.544E-01 
2.321E+00   1.279E+01  3.540E-01 
2.348E+00   1.287E+01  3.535E-01 
2.375E+00   1.294E+01  3.531E-01 
2.402E+00   1.302E+01  3.526E-01 
2.430E+00   1.310E+01  3.521E-01 
2.458E+00   1.318E+01  3.516E-01 
2.487E+00   1.325E+01  3.511E-01 
2.516E+00   1.333E+01  3.506E-01 
2.545E+00   1.341E+01  3.501E-01 
2.574E+00   1.349E+01  3.496E-01 
2.604E+00   1.357E+01  3.490E-01 
2.635E+00   1.365E+01  3.485E-01 
2.665E+00   1.373E+01  3.480E-01 
2.696E+00   1.381E+01  3.474E-01 
2.727E+00   1.389E+01  3.468E-01 
2.759E+00   1.398E+01  3.463E-01 
2.791E+00   1.406E+01  3.457E-01 
2.823E+00   1.414E+01  3.451E-01 
2.856E+00   1.423E+01  3.445E-01 
2.889E+00   1.431E+01  3.439E-01 
2.923E+00   1.440E+01  3.433E-01 
2.957E+00   1.448E+01  3.427E-01 
2.991E+00   1.457E+01  3.421E-01 
3.026E+00   1.465E+01  3.415E-01 
3.061E+00   1.474E+01  3.409E-01 
3.096E+00   1.483E+01  3.402E-01 
3.132E+00   1.491E+01  3.396E-01 
3.168E+00   1.500E+01  3.389E-01 
3.205E+00   1.509E+01  3.383E-01 
3.242E+00   1.518E+01  3.376E-01 
3.280E+00   1.527E+01  3.369E-01 
3.318E+00   1.536E+01  3.363E-01 
3.356E+00   1.545E+01  3.356E-01 
3.395E+00   1.554E+01  3.349E-01 
3.435E+00   1.563E+01  3.342E-01 
3.475E+00   1.572E+01  3.335E-01 
3.515E+00   1.582E+01  3.327E-01 
3.556E+00   1.591E+01  3.320E-01 
3.597E+00   1.600E+01  3.313E-01 
3.639E+00   1.610E+01  3.306E-01 
3.681E+00   1.619E+01  3.298E-01 
3.724E+00   1.629E+01  3.291E-01 
3.767E+00   1.638E+01  3.283E-01 
3.810E+00   1.648E+01  3.276E-01 
3.855E+00   1.658E+01  3.268E-01 
3.899E+00   1.667E+01  3.260E-01 
3.945E+00   1.677E+01  3.252E-01 
3.990E+00   1.687E+01  3.245E-01 
4.037E+00   1.697E+01  3.237E-01 
4.083E+00   1.707E+01  3.229E-01 
4.131E+00   1.717E+01  3.221E-01 
4.179E+00   1.727E+01  3.212E-01 
4.227E+00   1.737E+01  3.204E-01 
4.276E+00   1.747E+01  3.196E-01 
4.326E+00   1.757E+01  3.188E-01 
4.376E+00   1.768E+01  3.179E-01 
4.427E+00   1.778E+01  3.171E-01 
4.478E+00   1.788E+01  3.163E-01 
4.530E+00   1.799E+01  3.154E-01 
4.583E+00   1.809E+01  3.145E-01 
4.636E+00   1.820E+01  3.137E-01 
4.690E+00   1.831E+01  3.128E-01 
4.744E+00   1.841E+01  3.119E-01 
4.799E+00   1.852E+01  3.111E-01 
4.855E+00   1.863E+01  3.102E-01 
4.911E+00   1.874E+01  3.093E-01 
4.968E+00   1.885E+01  3.084E-01 
5.026E+00   1.896E+01  3.075E-01 
5.084E+00   1.907E+01  3.066E-01 
5.143E+00   1.918E+01  3.057E-01 
5.202E+00   1.929E+01  3.047E-01 
5.263E+00   1.940E+01  3.038E-01 
5.324E+00   1.951E+01  3.029E-01 
5.386E+00   1.963E+01  3.020E-01 
5.448E+00   1.974E+01  3.010E-01 
5.511E+00   1.986E+01  3.001E-01 
5.575E+00   1.997E+01  2.991E-01 
5.640E+00   2.009E+01  2.982E-01 
5.705E+00   2.020E+01  2.972E-01 
5.771E+00   2.032E+01  2.963E-01 
5.838E+00   2.044E+01  2.953E-01 
5.906E+00   2.056E+01  2.943E-01 
5.975E+00   2.068E+01  2.934E-01 
6.044E+00   2.079E+01  2.924E-01 
6.114E+00   2.091E+01  2.914E-01 
6.185E+00   2.104E+01  2.904E-01 
6.257E+00   2.116E+01  2.894E-01 
6.329E+00   2.128E+01  2.884E-01 
6.403E+00   2.140E+01  2.874E-01 
6.477E+00   2.152E+01  2.864E-01 
6.552E+00   2.165E+01  2.854E-01 
6.628E+00   2.177E+01  2.844E-01 
6.705E+00   2.190E+01  2.834E-01 
6.783E+00   2.202E+01  2.824E-01 
6.861E+00   2.215E+01  2.814E-01 
6.941E+00   2.227E+01  2.803E-01 
7.021E+00   2.240E+01  2.793E-01 
7.103E+00   2.253E+01  2.783E-01 
7.185E+00   2.266E+01  2.772E-01 
7.269E+00   2.279E+01  2.762E-01 
7.353E+00   2.292E+01  2.752E-01 
7.438E+00   2.305E+01  2.741E-01 
7.524E+00   2.318E+01  2.731E-01 
7.612E+00   2.331E+01  2.720E-01 
7.700E+00   2.344E+01  2.710E-01 
7.789E+00   2.358E+01  2.699E-01 
7.880E+00   2.371E+01  2.689E-01 
7.971E+00   2.384E+01  2.678E-01 
8.064E+00   2.398E+01  2.667E-01 
8.157E+00   2.411E+01  2.657E-01 
8.252E+00   2.425E+01  2.646E-01 
8.347E+00   2.439E+01  2.635E-01 
8.444E+00   2.452E+01  2.625E-01 
8.542E+00   2.466E+01  2.614E-01 
8.641E+00   2.480E+01  2.603E-01 
8.741E+00   2.494E+01  2.592E-01 
8.843E+00   2.508E+01  2.582E-01 
8.945E+00   2.522E+01  2.571E-01 
9.049E+00   2.536E+01  2.560E-01 
9.154E+00   2.550E+01  2.549E-01 
9.260E+00   2.564E+01  2.538E-01 
9.368E+00   2.579E+01  2.527E-01 
9.476E+00   2.593E+01  2.516E-01 
9.586E+00   2.607E+01  2.506E-01 
9.698E+00   2.622E+01  2.495E-01 
9.810E+00   2.636E+01  2.484E-01 
9.924E+00   2.651E+01  2.473E-01 
1.004E+01   2.665E+01  2.462E-01 
1.016E+01   2.680E+01  2.451E-01 
1.027E+01   2.695E+01  2.440E-01 
1.039E+01   2.710E+01  2.429E-01 
1.051E+01   2.724E+01  2.418E-01 
1.063E+01   2.739E+01  2.407E-01 
1.076E+01   2.754E+01  2.396E-01 
1.088E+01   2.769E+01  2.385E-01 
1.101E+01   2.784E+01  2.374E-01 
1.114E+01   2.799E+01  2.363E-01 
1.127E+01   2.815E+01  2.352E-01 
1.140E+01   2.830E+01  2.341E-01 
1.153E+01   2.845E+01  2.330E-01 
1.166E+01   2.860E+01  2.319E-01 
1.180E+01   2.876E+01  2.307E-01 
1.193E+01   2.891E+01  2.296E-01 
1.207E+01   2.907E+01  2.285E-01 
1.221E+01   2.922E+01  2.274E-01 
1.235E+01   2.938E+01  2.263E-01 
1.250E+01   2.953E+01  2.252E-01 
1.264E+01   2.969E+01  2.241E-01 
1.279E+01   2.985E+01  2.230E-01 
1.294E+01   3.001E+01  2.219E-01 
1.309E+01   3.016E+01  2.208E-01 
1.324E+01   3.032E+01  2.197E-01 
1.339E+01   3.048E+01  2.186E-01 
1.355E+01   3.064E+01  2.175E-01 
1.371E+01   3.080E+01  2.164E-01 
1.387E+01   3.096E+01  2.153E-01 
1.403E+01   3.112E+01  2.142E-01 
1.419E+01   3.128E+01  2.131E-01 
1.435E+01   3.145E+01  2.120E-01 
1.452E+01   3.161E+01  2.109E-01 
1.469E+01   3.177E+01  2.098E-01 
1.486E+01   3.193E+01  2.087E-01 
1.503E+01   3.210E+01  2.076E-01 
1.521E+01   3.226E+01  2.065E-01 
1.538E+01   3.242E+01  2.054E-01 
1.556E+01   3.259E+01  2.043E-01 
1.574E+01   3.275E+01  2.032E-01 
1.592E+01   3.292E+01  2.021E-01 
1.611E+01   3.308E+01  2.011E-01 
1.629E+01   3.325E+01  2.000E-01 
1.648E+01   3.341E+01  1.989E-01 
1.667E+01   3.358E+01  1.978E-01 
1.687E+01   3.374E+01  1.967E-01 
1.706E+01   3.391E+01  1.956E-01 
1.726E+01   3.407E+01  1.946E-01 
1.746E+01   3.424E+01  1.935E-01 
1.766E+01   3.441E+01  1.924E-01 
1.787E+01   3.457E+01  1.913E-01 
1.808E+01   3.474E+01  1.903E-01 
1.829E+01   3.491E+01  1.892E-01 
1.850E+01   3.507E+01  1.881E-01 
1.871E+01   3.524E+01  1.871E-01 
1.893E+01   3.541E+01  1.860E-01 
1.915E+01   3.557E+01  1.849E-01 
1.937E+01   3.574E+01  1.839E-01 
1.960E+01   3.591E+01  1.828E-01 
1.982E+01   3.608E+01  1.818E-01 
2.005E+01   3.624E+01  1.807E-01 
2.029E+01   3.641E+01  1.797E-01 
2.052E+01   3.658E+01  1.786E-01 
2.076E+01   3.674E+01  1.776E-01 
2.100E+01   3.691E+01  1.766E-01 
2.124E+01   3.708E+01  1.755E-01 
2.149E+01   3.724E+01  1.745E-01 
2.174E+01   3.741E+01  1.734E-01 
2.199E+01   3.757E+01  1.724E-01 
2.225E+01   3.774E+01  1.714E-01 
2.250E+01   3.791E+01  1.704E-01 
2.277E+01   3.807E+01  1.693E-01 
2.303E+01   3.824E+01  1.683E-01 
2.330E+01   3.840E+01  1.673E-01 
2.357E+01   3.856E+01  1.663E-01 
2.384E+01   3.873E+01  1.653E-01 
2.412E+01   3.889E+01  1.643E-01 
2.440E+01   3.905E+01  1.633E-01 
2.468E+01   3.922E+01  1.623E-01 
2.497E+01   3.938E+01  1.613E-01 
2.526E+01   3.954E+01  1.603E-01 
2.555E+01   3.970E+01  1.593E-01 
2.584E+01   3.986E+01  1.583E-01 
2.614E+01   4.002E+01  1.573E-01 
2.645E+01   4.018E+01  1.563E-01 
2.675E+01   4.034E+01  1.553E-01 
2.707E+01   4.049E+01  1.544E-01 
2.738E+01   4.065E+01  1.534E-01 
2.770E+01   4.081E+01  1.524E-01 
2.802E+01   4.096E+01  1.515E-01 
2.834E+01   4.112E+01  1.505E-01 
2.867E+01   4.127E+01  1.495E-01 
2.900E+01   4.142E+01  1.486E-01 
2.934E+01   4.157E+01  1.476E-01 
2.968E+01   4.172E+01  1.467E-01 
3.003E+01   4.187E+01  1.457E-01 
3.037E+01   4.202E+01  1.448E-01 
3.073E+01   4.217E+01  1.439E-01 
3.108E+01   4.231E+01  1.429E-01 
3.144E+01   4.246E+01  1.420E-01 
3.181E+01   4.260E+01  1.411E-01 
3.218E+01   4.274E+01  1.401E-01 
3.255E+01   4.289E+01  1.392E-01 
3.293E+01   4.303E+01  1.383E-01 
3.331E+01   4.316E+01  1.374E-01 
3.370E+01   4.330E+01  1.365E-01 
3.409E+01   4.344E+01  1.356E-01 
3.448E+01   4.357E+01  1.347E-01 
3.488E+01   4.370E+01  1.338E-01 
3.529E+01   4.384E+01  1.329E-01 
3.570E+01   4.396E+01  1.320E-01 
3.611E+01   4.409E+01  1.311E-01 
3.653E+01   4.422E+01  1.302E-01 
3.695E+01   4.434E+01  1.293E-01 
3.738E+01   4.447E+01  1.285E-01 
3.781E+01   4.459E+01  1.276E-01 
3.825E+01   4.471E+01  1.267E-01 
3.870E+01   4.482E+01  1.258E-01 
3.915E+01   4.494E+01  1.250E-01 
3.960E+01   4.505E+01  1.241E-01 
4.006E+01   4.516E+01  1.233E-01 
4.052E+01   4.527E+01  1.224E-01 
4.099E+01   4.538E+01  1.216E-01 
4.147E+01   4.549E+01  1.207E-01 
4.195E+01   4.559E+01  1.199E-01 
4.244E+01   4.569E+01  1.191E-01 
4.293E+01   4.579E+01  1.182E-01 
4.343E+01   4.588E+01  1.174E-01 
4.393E+01   4.598E+01  1.166E-01 
4.444E+01   4.607E+01  1.158E-01 
4.496E+01   4.616E+01  1.150E-01 
4.548E+01   4.624E+01  1.142E-01 
4.600E+01   4.633E+01  1.134E-01 
4.654E+01   4.641E+01  1.126E-01 
4.708E+01   4.649E+01  1.118E-01 
4.762E+01   4.657E+01  1.110E-01 
4.818E+01   4.664E+01  1.102E-01 
4.873E+01   4.671E+01  1.094E-01 
4.930E+01   4.678E+01  1.086E-01 
4.987E+01   4.684E+01  1.078E-01 
5.045E+01   4.691E+01  1.071E-01 
5.104E+01   4.697E+01  1.063E-01 
5.163E+01   4.702E+01  1.055E-01 
5.223E+01   4.708E+01  1.048E-01 
5.283E+01   4.713E+01  1.040E-01 
5.344E+01   4.718E+01  1.032E-01 
5.406E+01   4.722E+01  1.025E-01 
5.469E+01   4.727E+01  1.017E-01 
5.533E+01   4.730E+01  1.010E-01 
5.597E+01   4.734E+01  1.003E-01 
5.662E+01   4.737E+01  9.954E-02 
5.727E+01   4.740E+01  9.881E-02 
5.794E+01   4.743E+01  9.808E-02 
5.861E+01   4.745E+01  9.736E-02 
5.929E+01   4.747E+01  9.664E-02 
5.998E+01   4.749E+01  9.593E-02 
6.067E+01   4.750E+01  9.522E-02 
6.138E+01   4.751E+01  9.451E-02 
6.209E+01   4.752E+01  9.381E-02 
6.281E+01   4.753E+01  9.311E-02 
6.354E+01   4.753E+01  9.242E-02 
6.427E+01   4.752E+01  9.173E-02 
6.502E+01   4.752E+01  9.104E-02 
6.577E+01   4.751E+01  9.036E-02 
6.654E+01   4.749E+01  8.968E-02 
6.731E+01   4.748E+01  8.901E-02 
6.809E+01   4.746E+01  8.834E-02 
6.888E+01   4.743E+01  8.767E-02 
6.968E+01   4.741E+01  8.701E-02 
7.049E+01   4.738E+01  8.635E-02 
7.130E+01   4.734E+01  8.570E-02 
7.213E+01   4.731E+01  8.505E-02 
7.297E+01   4.726E+01  8.440E-02 
7.381E+01   4.722E+01  8.376E-02 
7.467E+01   4.717E+01  8.312E-02 
7.554E+01   4.712E+01  8.248E-02 
7.641E+01   4.707E+01  8.185E-02 
7.730E+01   4.701E+01  8.122E-02 
7.820E+01   4.695E+01  8.060E-02 
7.910E+01   4.688E+01  7.998E-02 
8.002E+01   4.682E+01  7.936E-02 
8.095E+01   4.674E+01  7.875E-02 
8.189E+01   4.667E+01  7.814E-02 
8.284E+01   4.659E+01  7.754E-02 
8.380E+01   4.651E+01  7.694E-02 
8.477E+01   4.642E+01  7.634E-02 
8.575E+01   4.634E+01  7.575E-02 
8.675E+01   4.624E+01  7.516E-02 
8.775E+01   4.615E+01  7.457E-02 
8.877E+01   4.605E+01  7.399E-02 
8.980E+01   4.595E+01  7.341E-02 
9.084E+01   4.584E+01  7.284E-02 
9.190E+01   4.574E+01  7.226E-02 
9.296E+01   4.563E+01  7.170E-02 
9.404E+01   4.551E+01  7.113E-02 
9.513E+01   4.540E+01  7.057E-02 
9.624E+01   4.528E+01  7.002E-02 
9.735E+01   4.515E+01  6.946E-02 
9.848E+01   4.503E+01  6.891E-02 
9.962E+01   4.490E+01  6.837E-02 
1.008E+02   4.477E+01  6.782E-02 
1.019E+02   4.463E+01  6.729E-02 
1.031E+02   4.450E+01  6.675E-02 
1.043E+02   4.436E+01  6.622E-02 
1.055E+02   4.421E+01  6.569E-02 
1.068E+02   4.407E+01  6.517E-02 
1.080E+02   4.392E+01  6.465E-02 
1.093E+02   4.377E+01  6.413E-02 
1.105E+02   4.362E+01  6.361E-02 
1.118E+02   4.346E+01  6.310E-02 
1.131E+02   4.331E+01  6.260E-02 
1.144E+02   4.315E+01  6.209E-02 
1.157E+02   4.299E+01  6.159E-02 
1.171E+02   4.282E+01  6.109E-02 
1.184E+02   4.265E+01  6.222E-02 
1.198E+02   4.249E+01  6.171E-02 
1.212E+02   4.232E+01  6.121E-02 
1.226E+02   4.214E+01  6.071E-02 
1.240E+02   4.197E+01  6.022E-02 
1.255E+02   4.179E+01  5.973E-02 
1.269E+02   4.162E+01  5.924E-02 
1.284E+02   4.144E+01  5.875E-02 
1.299E+02   4.126E+01  5.827E-02 
1.314E+02   4.107E+01  5.779E-02 
1.329E+02   4.089E+01  5.732E-02 
1.345E+02   4.070E+01  5.685E-02 
1.360E+02   4.052E+01  5.638E-02 
1.376E+02   4.033E+01  5.591E-02 
1.392E+02   4.014E+01  5.545E-02 
1.408E+02   3.995E+01  5.499E-02 
1.424E+02   3.976E+01  5.454E-02 
1.441E+02   3.956E+01  5.408E-02 
1.458E+02   3.937E+01  5.363E-02 
1.475E+02   3.918E+01  5.319E-02 
1.492E+02   3.898E+01  5.274E-02 
1.509E+02   3.878E+01  5.231E-02 
1.526E+02   3.859E+01  5.187E-02 
1.544E+02   3.839E+01  5.144E-02 
1.562E+02   3.819E+01  5.101E-02 
1.580E+02   3.799E+01  5.058E-02 
1.598E+02   3.779E+01  5.015E-02 
1.617E+02   3.759E+01  4.973E-02 
1.636E+02   3.739E+01  4.931E-02 
1.655E+02   3.719E+01  4.890E-02 
1.674E+02   3.699E+01  4.849E-02 
1.693E+02   3.679E+01  4.808E-02 
1.713E+02   3.658E+01  4.767E-02 
1.733E+02   3.638E+01  4.727E-02 
1.753E+02   3.618E+01  4.687E-02 
1.773E+02   3.598E+01  4.647E-02 
1.794E+02   3.578E+01  4.608E-02 
1.815E+02   3.557E+01  4.569E-02 
1.836E+02   3.537E+01  4.530E-02 
1.857E+02   3.517E+01  4.492E-02 
1.879E+02   3.497E+01  4.453E-02 
1.900E+02   3.477E+01  4.415E-02 
1.922E+02   3.457E+01  4.378E-02 
1.945E+02   3.437E+01  4.340E-02 
1.967E+02   3.417E+01  4.303E-02 
1.990E+02   3.397E+01  4.266E-02 
2.013E+02   3.377E+01  4.230E-02 
2.036E+02   3.357E+01  4.194E-02 
2.060E+02   3.338E+01  4.158E-02 
2.084E+02   3.318E+01  4.122E-02 
2.108E+02   3.298E+01  4.086E-02 
2.133E+02   3.279E+01  4.051E-02 
2.157E+02   3.259E+01  4.016E-02 
2.182E+02   3.240E+01  3.982E-02 
2.208E+02   3.221E+01  3.947E-02 
2.233E+02   3.201E+01  3.913E-02 
2.259E+02   3.182E+01  3.879E-02 
2.285E+02   3.163E+01  3.846E-02 
2.312E+02   3.144E+01  3.812E-02 
2.339E+02   3.125E+01  3.779E-02 
2.366E+02   3.107E+01  3.747E-02 
2.393E+02   3.088E+01  3.714E-02 
2.421E+02   3.069E+01  3.682E-02 
2.449E+02   3.051E+01  3.650E-02 
2.478E+02   3.033E+01  3.618E-02 
2.506E+02   3.014E+01  3.586E-02 
2.535E+02   2.996E+01  3.555E-02 
2.565E+02   2.978E+01  3.524E-02 
2.595E+02   2.960E+01  3.493E-02 
2.625E+02   2.942E+01  3.463E-02 
2.655E+02   2.925E+01  3.432E-02 
2.686E+02   2.907E+01  3.402E-02 
2.717E+02   2.890E+01  3.372E-02 
2.749E+02   2.872E+01  3.343E-02 
2.780E+02   2.855E+01  3.313E-02 
2.813E+02   2.838E+01  3.284E-02 
2.845E+02   2.821E+01  3.255E-02 
2.878E+02   2.804E+01  3.227E-02 
2.912E+02   2.787E+01  3.198E-02 
2.945E+02   2.771E+01  3.170E-02 
2.980E+02   2.754E+01  3.142E-02 
3.014E+02   2.738E+01  3.114E-02 
3.049E+02   2.722E+01  3.087E-02 
3.085E+02   2.706E+01  3.060E-02 
3.120E+02   2.690E+01  3.032E-02 
3.156E+02   2.674E+01  3.006E-02 
3.193E+02   2.658E+01  2.979E-02 
3.230E+02   2.642E+01  2.952E-02 
3.268E+02   2.627E+01  2.926E-02 
3.306E+02   2.611E+01  2.900E-02 
3.344E+02   2.596E+01  2.874E-02 
3.383E+02   2.581E+01  2.849E-02 
3.422E+02   2.566E+01  2.823E-02 
3.462E+02   2.551E+01  2.798E-02 
3.502E+02   2.536E+01  2.773E-02 
3.542E+02   2.522E+01  2.749E-02 
3.583E+02   2.507E+01  2.724E-02 
3.625E+02   2.493E+01  2.700E-02 
3.667E+02   2.478E+01  2.675E-02 
3.710E+02   2.464E+01  2.651E-02 
3.753E+02   2.450E+01  2.628E-02 
3.796E+02   2.436E+01  2.604E-02 
3.840E+02   2.422E+01  2.581E-02 
3.885E+02   2.409E+01  2.558E-02 
3.930E+02   2.395E+01  2.535E-02 
3.975E+02   2.381E+01  2.512E-02 
4.021E+02   2.368E+01  2.489E-02 
4.068E+02   2.355E+01  2.467E-02 
4.115E+02   2.341E+01  2.445E-02 
4.163E+02   2.328E+01  2.423E-02 
4.211E+02   2.315E+01  2.401E-02 
4.260E+02   2.302E+01  2.379E-02 
4.310E+02   2.290E+01  2.357E-02 
4.360E+02   2.277E+01  2.336E-02 
4.410E+02   2.264E+01  2.315E-02 
4.461E+02   2.252E+01  2.294E-02 
4.513E+02   2.239E+01  2.273E-02 
4.565E+02   2.227E+01  2.253E-02 
4.618E+02   2.215E+01  2.232E-02 
4.672E+02   2.203E+01  2.212E-02 
4.726E+02   2.191E+01  2.192E-02 
4.781E+02   2.179E+01  2.172E-02 
4.836E+02   2.167E+01  2.152E-02 
4.892E+02   2.155E+01  2.133E-02 
4.949E+02   2.144E+01  2.113E-02 
5.007E+02   2.132E+01  2.094E-02 
5.065E+02   2.120E+01  2.075E-02 
5.123E+02   2.109E+01  2.056E-02 
5.183E+02   2.098E+01  2.037E-02 
5.243E+02   2.086E+01  2.019E-02 
5.304E+02   2.075E+01  2.000E-02 
5.365E+02   2.064E+01  1.982E-02 
5.428E+02   2.053E+01  1.964E-02 
5.490E+02   2.042E+01  1.946E-02 
5.554E+02   2.031E+01  1.928E-02 
5.619E+02   2.021E+01  1.910E-02 
5.684E+02   2.010E+01  1.893E-02 
5.750E+02   1.999E+01  1.875E-02 
5.816E+02   1.989E+01  1.858E-02 
5.884E+02   1.978E+01  1.841E-02 
5.952E+02   1.968E+01  1.824E-02 
6.021E+02   1.957E+01  1.807E-02 
6.091E+02   1.947E+01  1.791E-02 
6.162E+02   1.937E+01  1.774E-02 
6.233E+02   1.926E+01  1.758E-02 
6.305E+02   1.916E+01  1.742E-02 
6.378E+02   1.906E+01  1.726E-02 
6.452E+02   1.896E+01  1.710E-02 
6.527E+02   1.886E+01  1.694E-02 
6.603E+02   1.876E+01  1.678E-02 
6.680E+02   1.867E+01  1.663E-02 
6.757E+02   1.857E+01  1.647E-02 
6.835E+02   1.847E+01  1.632E-02 
6.915E+02   1.837E+01  1.617E-02 
6.995E+02   1.828E+01  1.602E-02 
7.076E+02   1.818E+01  1.587E-02 
7.158E+02   1.809E+01  1.572E-02 
7.241E+02   1.799E+01  1.558E-02 
7.325E+02   1.790E+01  1.543E-02 
7.410E+02   1.781E+01  1.529E-02 
7.496E+02   1.771E+01  1.515E-02 
7.583E+02   1.762E+01  1.501E-02 
7.671E+02   1.753E+01  1.487E-02 
7.760E+02   1.744E+01  1.473E-02 
7.850E+02   1.735E+01  1.459E-02 
7.941E+02   1.726E+01  1.446E-02 
8.033E+02   1.717E+01  1.432E-02 
8.126E+02   1.708E+01  1.419E-02 
8.221E+02   1.699E+01  1.406E-02 
8.316E+02   1.690E+01  1.392E-02 
