Ion = Helium      . Mass = 4.0026
Tgt = Si (Solid). Density = 2.3212 g/cm3
Stopping Units =  eV/(1E15 atoms/cm2)
Energy(keV)  S(Elec)    S(Nuc)
1.000E+00   3.406E+00  3.689E+00 
1.013E+00   3.428E+00  3.689E+00 
1.026E+00   3.450E+00  3.688E+00 
1.039E+00   3.473E+00  3.688E+00 
1.053E+00   3.495E+00  3.687E+00 
1.067E+00   3.518E+00  3.687E+00 
1.081E+00   3.541E+00  3.686E+00 
1.095E+00   3.564E+00  3.685E+00 
1.109E+00   3.587E+00  3.684E+00 
1.123E+00   3.610E+00  3.683E+00 
1.138E+00   3.633E+00  3.681E+00 
1.153E+00   3.657E+00  3.680E+00 
1.168E+00   3.681E+00  3.678E+00 
1.183E+00   3.704E+00  3.677E+00 
1.198E+00   3.728E+00  3.675E+00 
1.214E+00   3.753E+00  3.673E+00 
1.229E+00   3.777E+00  3.671E+00 
1.245E+00   3.801E+00  3.669E+00 
1.262E+00   3.826E+00  3.667E+00 
1.278E+00   3.851E+00  3.665E+00 
1.295E+00   3.876E+00  3.662E+00 
1.311E+00   3.901E+00  3.660E+00 
1.329E+00   3.926E+00  3.657E+00 
1.346E+00   3.951E+00  3.654E+00 
1.363E+00   3.977E+00  3.651E+00 
1.381E+00   4.003E+00  3.648E+00 
1.399E+00   4.029E+00  3.645E+00 
1.417E+00   4.055E+00  3.642E+00 
1.436E+00   4.081E+00  3.639E+00 
1.454E+00   4.108E+00  3.635E+00 
1.473E+00   4.134E+00  3.632E+00 
1.492E+00   4.161E+00  3.628E+00 
1.512E+00   4.188E+00  3.624E+00 
1.531E+00   4.215E+00  3.620E+00 
1.551E+00   4.242E+00  3.616E+00 
1.571E+00   4.270E+00  3.612E+00 
1.592E+00   4.297E+00  3.608E+00 
1.612E+00   4.325E+00  3.603E+00 
1.633E+00   4.353E+00  3.599E+00 
1.655E+00   4.382E+00  3.594E+00 
1.676E+00   4.410E+00  3.590E+00 
1.698E+00   4.438E+00  3.585E+00 
1.720E+00   4.467E+00  3.580E+00 
1.742E+00   4.496E+00  3.575E+00 
1.765E+00   4.525E+00  3.570E+00 
1.788E+00   4.555E+00  3.564E+00 
1.811E+00   4.584E+00  3.559E+00 
1.835E+00   4.614E+00  3.554E+00 
1.859E+00   4.644E+00  3.548E+00 
1.883E+00   4.674E+00  3.542E+00 
1.907E+00   4.704E+00  3.536E+00 
1.932E+00   4.734E+00  3.531E+00 
1.957E+00   4.765E+00  3.524E+00 
1.983E+00   4.796E+00  3.518E+00 
2.008E+00   4.827E+00  3.512E+00 
2.034E+00   4.858E+00  3.506E+00 
2.061E+00   4.890E+00  3.499E+00 
2.088E+00   4.921E+00  3.493E+00 
2.115E+00   4.953E+00  3.486E+00 
2.142E+00   4.985E+00  3.479E+00 
2.170E+00   5.018E+00  3.472E+00 
2.198E+00   5.050E+00  3.465E+00 
2.227E+00   5.083E+00  3.458E+00 
2.256E+00   5.116E+00  3.451E+00 
2.285E+00   5.149E+00  3.444E+00 
2.315E+00   5.182E+00  3.436E+00 
2.345E+00   5.216E+00  3.429E+00 
2.375E+00   5.250E+00  3.421E+00 
2.406E+00   5.284E+00  3.413E+00 
2.438E+00   5.318E+00  3.405E+00 
2.469E+00   5.352E+00  3.398E+00 
2.501E+00   5.387E+00  3.390E+00 
2.534E+00   5.422E+00  3.381E+00 
2.567E+00   5.457E+00  3.373E+00 
2.600E+00   5.492E+00  3.365E+00 
2.634E+00   5.528E+00  3.356E+00 
2.668E+00   5.564E+00  3.348E+00 
2.703E+00   5.600E+00  3.339E+00 
2.738E+00   5.636E+00  3.331E+00 
2.773E+00   5.673E+00  3.322E+00 
2.810E+00   5.709E+00  3.313E+00 
2.846E+00   5.746E+00  3.304E+00 
2.883E+00   5.784E+00  3.295E+00 
2.921E+00   5.821E+00  3.286E+00 
2.958E+00   5.859E+00  3.277E+00 
2.997E+00   5.897E+00  3.267E+00 
3.036E+00   5.935E+00  3.258E+00 
3.075E+00   5.973E+00  3.248E+00 
3.115E+00   6.012E+00  3.239E+00 
3.156E+00   6.051E+00  3.229E+00 
3.197E+00   6.090E+00  3.219E+00 
3.238E+00   6.130E+00  3.210E+00 
3.280E+00   6.169E+00  3.200E+00 
3.323E+00   6.209E+00  3.190E+00 
3.366E+00   6.249E+00  3.180E+00 
3.410E+00   6.290E+00  3.169E+00 
3.454E+00   6.331E+00  3.159E+00 
3.499E+00   6.372E+00  3.149E+00 
3.545E+00   6.413E+00  3.138E+00 
3.591E+00   6.454E+00  3.128E+00 
3.637E+00   6.496E+00  3.118E+00 
3.685E+00   6.538E+00  3.107E+00 
3.733E+00   6.581E+00  3.096E+00 
3.781E+00   6.623E+00  3.086E+00 
3.830E+00   6.666E+00  3.075E+00 
3.880E+00   6.709E+00  3.064E+00 
3.930E+00   6.753E+00  3.053E+00 
3.982E+00   6.797E+00  3.042E+00 
4.033E+00   6.841E+00  3.031E+00 
4.086E+00   6.885E+00  3.020E+00 
4.139E+00   6.930E+00  3.009E+00 
4.193E+00   6.974E+00  2.997E+00 
4.247E+00   7.020E+00  2.986E+00 
4.302E+00   7.065E+00  2.975E+00 
4.358E+00   7.111E+00  2.963E+00 
4.415E+00   7.157E+00  2.952E+00 
4.472E+00   7.203E+00  2.940E+00 
4.530E+00   7.250E+00  2.929E+00 
4.589E+00   7.297E+00  2.917E+00 
4.649E+00   7.344E+00  2.905E+00 
4.709E+00   7.392E+00  2.893E+00 
4.770E+00   7.440E+00  2.882E+00 
4.832E+00   7.488E+00  2.870E+00 
4.895E+00   7.536E+00  2.858E+00 
4.959E+00   7.585E+00  2.846E+00 
5.023E+00   7.634E+00  2.834E+00 
5.089E+00   7.684E+00  2.822E+00 
5.155E+00   7.733E+00  2.810E+00 
5.222E+00   7.784E+00  2.798E+00 
5.290E+00   7.834E+00  2.786E+00 
5.358E+00   7.885E+00  2.773E+00 
5.428E+00   7.936E+00  2.761E+00 
5.499E+00   7.987E+00  2.749E+00 
5.570E+00   8.039E+00  2.737E+00 
5.642E+00   8.091E+00  2.724E+00 
5.716E+00   8.143E+00  2.712E+00 
5.790E+00   8.196E+00  2.699E+00 
5.865E+00   8.249E+00  2.687E+00 
5.942E+00   8.303E+00  2.675E+00 
6.019E+00   8.356E+00  2.662E+00 
6.097E+00   8.411E+00  2.650E+00 
6.176E+00   8.465E+00  2.637E+00 
6.256E+00   8.520E+00  2.624E+00 
6.338E+00   8.575E+00  2.612E+00 
6.420E+00   8.631E+00  2.599E+00 
6.504E+00   8.686E+00  2.587E+00 
6.588E+00   8.743E+00  2.574E+00 
6.674E+00   8.799E+00  2.561E+00 
6.760E+00   8.856E+00  2.549E+00 
6.848E+00   8.914E+00  2.536E+00 
6.937E+00   8.971E+00  2.523E+00 
7.027E+00   9.030E+00  2.510E+00 
7.119E+00   9.088E+00  2.498E+00 
7.211E+00   9.147E+00  2.485E+00 
7.305E+00   9.206E+00  2.472E+00 
7.400E+00   9.266E+00  2.459E+00 
7.496E+00   9.326E+00  2.446E+00 
7.594E+00   9.386E+00  2.434E+00 
7.692E+00   9.447E+00  2.421E+00 
7.792E+00   9.508E+00  2.408E+00 
7.894E+00   9.570E+00  2.395E+00 
7.996E+00   9.632E+00  2.382E+00 
8.100E+00   9.695E+00  2.369E+00 
8.205E+00   9.759E+00  2.357E+00 
8.312E+00   9.824E+00  2.344E+00 
8.420E+00   9.888E+00  2.331E+00 
8.529E+00   9.953E+00  2.318E+00 
8.640E+00   1.002E+01  2.305E+00 
8.753E+00   1.008E+01  2.292E+00 
8.866E+00   1.015E+01  2.280E+00 
8.982E+00   1.022E+01  2.267E+00 
9.098E+00   1.028E+01  2.254E+00 
9.217E+00   1.035E+01  2.241E+00 
9.336E+00   1.042E+01  2.228E+00 
9.458E+00   1.048E+01  2.215E+00 
9.581E+00   1.055E+01  2.203E+00 
9.705E+00   1.062E+01  2.190E+00 
9.831E+00   1.069E+01  2.177E+00 
9.959E+00   1.075E+01  2.164E+00 
1.009E+01   1.082E+01  2.152E+00 
1.022E+01   1.089E+01  2.139E+00 
1.035E+01   1.096E+01  2.126E+00 
1.049E+01   1.103E+01  2.114E+00 
1.062E+01   1.110E+01  2.101E+00 
1.076E+01   1.117E+01  2.088E+00 
1.090E+01   1.124E+01  2.076E+00 
1.104E+01   1.131E+01  2.063E+00 
1.119E+01   1.138E+01  2.050E+00 
1.133E+01   1.146E+01  2.038E+00 
1.148E+01   1.153E+01  2.025E+00 
1.163E+01   1.160E+01  2.013E+00 
1.178E+01   1.167E+01  2.000E+00 
1.193E+01   1.175E+01  1.988E+00 
1.209E+01   1.182E+01  1.975E+00 
1.224E+01   1.190E+01  1.963E+00 
1.240E+01   1.197E+01  1.950E+00 
1.256E+01   1.205E+01  1.938E+00 
1.273E+01   1.213E+01  1.926E+00 
1.289E+01   1.221E+01  1.913E+00 
1.306E+01   1.229E+01  1.901E+00 
1.323E+01   1.237E+01  1.889E+00 
1.340E+01   1.245E+01  1.876E+00 
1.358E+01   1.253E+01  1.864E+00 
1.375E+01   1.261E+01  1.852E+00 
1.393E+01   1.270E+01  1.840E+00 
1.411E+01   1.278E+01  1.828E+00 
1.430E+01   1.287E+01  1.816E+00 
1.448E+01   1.296E+01  1.804E+00 
1.467E+01   1.305E+01  1.792E+00 
1.486E+01   1.314E+01  1.780E+00 
1.505E+01   1.323E+01  1.768E+00 
1.525E+01   1.332E+01  1.756E+00 
1.545E+01   1.342E+01  1.744E+00 
1.565E+01   1.351E+01  1.732E+00 
1.585E+01   1.361E+01  1.720E+00 
1.606E+01   1.371E+01  1.708E+00 
1.627E+01   1.381E+01  1.697E+00 
1.648E+01   1.391E+01  1.685E+00 
1.669E+01   1.401E+01  1.673E+00 
1.691E+01   1.411E+01  1.662E+00 
1.713E+01   1.422E+01  1.650E+00 
1.735E+01   1.432E+01  1.639E+00 
1.758E+01   1.443E+01  1.627E+00 
1.781E+01   1.454E+01  1.616E+00 
1.804E+01   1.465E+01  1.604E+00 
1.827E+01   1.476E+01  1.593E+00 
1.851E+01   1.488E+01  1.582E+00 
1.875E+01   1.499E+01  1.570E+00 
1.899E+01   1.511E+01  1.559E+00 
1.924E+01   1.523E+01  1.548E+00 
1.949E+01   1.535E+01  1.537E+00 
1.974E+01   1.547E+01  1.526E+00 
2.000E+01   1.559E+01  1.515E+00 
2.026E+01   1.571E+01  1.504E+00 
2.052E+01   1.584E+01  1.493E+00 
2.079E+01   1.597E+01  1.482E+00 
2.106E+01   1.609E+01  1.471E+00 
2.133E+01   1.622E+01  1.460E+00 
2.161E+01   1.635E+01  1.450E+00 
2.189E+01   1.649E+01  1.439E+00 
2.218E+01   1.662E+01  1.428E+00 
2.247E+01   1.675E+01  1.418E+00 
2.276E+01   1.689E+01  1.407E+00 
2.305E+01   1.703E+01  1.396E+00 
2.335E+01   1.717E+01  1.386E+00 
2.366E+01   1.731E+01  1.376E+00 
2.396E+01   1.745E+01  1.365E+00 
2.428E+01   1.759E+01  1.355E+00 
2.459E+01   1.774E+01  1.345E+00 
2.491E+01   1.788E+01  1.334E+00 
2.523E+01   1.803E+01  1.324E+00 
2.556E+01   1.818E+01  1.314E+00 
2.589E+01   1.833E+01  1.304E+00 
2.623E+01   1.848E+01  1.294E+00 
2.657E+01   1.863E+01  1.284E+00 
2.692E+01   1.878E+01  1.274E+00 
2.727E+01   1.894E+01  1.264E+00 
2.762E+01   1.909E+01  1.255E+00 
2.798E+01   1.925E+01  1.245E+00 
2.834E+01   1.941E+01  1.235E+00 
2.871E+01   1.957E+01  1.225E+00 
2.909E+01   1.973E+01  1.216E+00 
2.946E+01   1.989E+01  1.206E+00 
2.985E+01   2.006E+01  1.197E+00 
3.023E+01   2.022E+01  1.187E+00 
3.063E+01   2.039E+01  1.178E+00 
3.103E+01   2.056E+01  1.169E+00 
3.143E+01   2.073E+01  1.159E+00 
3.184E+01   2.090E+01  1.150E+00 
3.225E+01   2.107E+01  1.141E+00 
3.267E+01   2.124E+01  1.132E+00 
3.309E+01   2.142E+01  1.123E+00 
3.352E+01   2.159E+01  1.114E+00 
3.396E+01   2.177E+01  1.105E+00 
3.440E+01   2.195E+01  1.096E+00 
3.485E+01   2.213E+01  1.087E+00 
3.530E+01   2.231E+01  1.078E+00 
3.576E+01   2.250E+01  1.069E+00 
3.623E+01   2.268E+01  1.060E+00 
3.670E+01   2.286E+01  1.052E+00 
3.717E+01   2.305E+01  1.043E+00 
3.766E+01   2.324E+01  1.035E+00 
3.815E+01   2.343E+01  1.026E+00 
3.864E+01   2.362E+01  1.018E+00 
3.914E+01   2.381E+01  1.009E+00 
3.965E+01   2.401E+01  1.001E+00 
4.017E+01   2.420E+01  9.926E-01 
4.069E+01   2.440E+01  9.844E-01 
4.122E+01   2.460E+01  9.762E-01 
4.175E+01   2.480E+01  9.680E-01 
4.230E+01   2.500E+01  9.599E-01 
4.285E+01   2.520E+01  9.519E-01 
4.340E+01   2.540E+01  9.439E-01 
4.397E+01   2.561E+01  9.360E-01 
4.454E+01   2.581E+01  9.281E-01 
4.512E+01   2.602E+01  9.203E-01 
4.570E+01   2.623E+01  9.125E-01 
4.630E+01   2.644E+01  9.047E-01 
4.690E+01   2.665E+01  8.971E-01 
4.751E+01   2.687E+01  8.894E-01 
4.813E+01   2.708E+01  8.819E-01 
4.875E+01   2.730E+01  8.743E-01 
4.939E+01   2.752E+01  8.669E-01 
5.003E+01   2.774E+01  8.594E-01 
5.068E+01   2.796E+01  8.521E-01 
5.134E+01   2.818E+01  8.447E-01 
5.200E+01   2.840E+01  8.375E-01 
5.268E+01   2.863E+01  8.302E-01 
5.336E+01   2.885E+01  8.230E-01 
5.406E+01   2.908E+01  8.159E-01 
5.476E+01   2.931E+01  8.088E-01 
5.547E+01   2.954E+01  8.018E-01 
5.619E+01   2.977E+01  7.948E-01 
5.692E+01   3.001E+01  7.879E-01 
5.766E+01   3.024E+01  7.810E-01 
5.841E+01   3.048E+01  7.742E-01 
5.917E+01   3.071E+01  7.674E-01 
5.994E+01   3.095E+01  7.607E-01 
6.072E+01   3.119E+01  7.540E-01 
6.151E+01   3.144E+01  7.474E-01 
6.231E+01   3.168E+01  7.408E-01 
6.312E+01   3.192E+01  7.342E-01 
6.394E+01   3.217E+01  7.277E-01 
6.477E+01   3.242E+01  7.213E-01 
6.561E+01   3.266E+01  7.149E-01 
6.646E+01   3.291E+01  7.085E-01 
6.733E+01   3.316E+01  7.022E-01 
6.820E+01   3.342E+01  6.960E-01 
6.909E+01   3.367E+01  6.897E-01 
6.999E+01   3.393E+01  6.836E-01 
7.090E+01   3.418E+01  6.775E-01 
7.182E+01   3.444E+01  6.714E-01 
7.275E+01   3.470E+01  6.653E-01 
7.370E+01   3.496E+01  6.594E-01 
7.465E+01   3.522E+01  6.534E-01 
7.562E+01   3.548E+01  6.475E-01 
7.661E+01   3.575E+01  6.417E-01 
7.760E+01   3.601E+01  6.359E-01 
7.861E+01   3.628E+01  6.301E-01 
7.963E+01   3.654E+01  6.244E-01 
8.067E+01   3.681E+01  6.187E-01 
8.172E+01   3.708E+01  6.131E-01 
8.278E+01   3.735E+01  6.075E-01 
8.385E+01   3.762E+01  6.020E-01 
8.494E+01   3.790E+01  5.965E-01 
8.605E+01   3.817E+01  5.910E-01 
8.717E+01   3.845E+01  5.856E-01 
8.830E+01   3.872E+01  5.802E-01 
8.945E+01   3.900E+01  5.539E-01 
9.061E+01   3.928E+01  5.488E-01 
9.179E+01   3.956E+01  5.438E-01 
9.298E+01   3.984E+01  5.389E-01 
9.419E+01   4.012E+01  5.340E-01 
9.541E+01   4.040E+01  5.291E-01 
9.665E+01   4.068E+01  5.242E-01 
9.791E+01   4.097E+01  5.194E-01 
9.918E+01   4.125E+01  5.147E-01 
1.005E+02   4.154E+01  5.099E-01 
1.018E+02   4.182E+01  5.052E-01 
1.031E+02   4.211E+01  5.006E-01 
1.044E+02   4.240E+01  4.959E-01 
1.058E+02   4.268E+01  4.913E-01 
1.072E+02   4.297E+01  4.868E-01 
1.086E+02   4.326E+01  4.823E-01 
1.100E+02   4.355E+01  4.778E-01 
1.114E+02   4.384E+01  4.733E-01 
1.129E+02   4.413E+01  4.689E-01 
1.143E+02   4.442E+01  4.646E-01 
1.158E+02   4.472E+01  4.602E-01 
1.173E+02   4.501E+01  4.559E-01 
1.188E+02   4.530E+01  4.516E-01 
1.204E+02   4.559E+01  4.474E-01 
1.219E+02   4.589E+01  4.432E-01 
1.235E+02   4.618E+01  4.390E-01 
1.251E+02   4.647E+01  4.349E-01 
1.268E+02   4.677E+01  4.308E-01 
1.284E+02   4.706E+01  4.267E-01 
1.301E+02   4.736E+01  4.227E-01 
1.318E+02   4.765E+01  4.187E-01 
1.335E+02   4.794E+01  4.147E-01 
1.352E+02   4.824E+01  4.108E-01 
1.370E+02   4.853E+01  4.069E-01 
1.388E+02   4.883E+01  4.030E-01 
1.406E+02   4.912E+01  3.992E-01 
1.424E+02   4.941E+01  3.954E-01 
1.442E+02   4.971E+01  3.916E-01 
1.461E+02   5.000E+01  3.879E-01 
1.480E+02   5.029E+01  3.842E-01 
1.499E+02   5.058E+01  3.805E-01 
1.519E+02   5.088E+01  3.769E-01 
1.539E+02   5.117E+01  3.732E-01 
1.559E+02   5.146E+01  3.697E-01 
1.579E+02   5.175E+01  3.661E-01 
1.599E+02   5.204E+01  3.626E-01 
1.620E+02   5.232E+01  3.591E-01 
1.641E+02   5.261E+01  3.556E-01 
1.662E+02   5.290E+01  3.522E-01 
1.684E+02   5.318E+01  3.488E-01 
1.706E+02   5.347E+01  3.454E-01 
1.728E+02   5.375E+01  3.421E-01 
1.751E+02   5.404E+01  3.387E-01 
1.773E+02   5.432E+01  3.355E-01 
1.796E+02   5.460E+01  3.322E-01 
1.820E+02   5.488E+01  3.290E-01 
1.843E+02   5.515E+01  3.258E-01 
1.867E+02   5.543E+01  3.226E-01 
1.892E+02   5.570E+01  3.194E-01 
1.916E+02   5.598E+01  3.163E-01 
1.941E+02   5.625E+01  3.132E-01 
1.966E+02   5.652E+01  3.102E-01 
1.992E+02   5.679E+01  3.071E-01 
2.018E+02   5.705E+01  3.041E-01 
2.044E+02   5.732E+01  3.011E-01 
2.071E+02   5.758E+01  2.982E-01 
2.097E+02   5.784E+01  2.953E-01 
2.125E+02   5.810E+01  2.923E-01 
2.152E+02   5.836E+01  2.895E-01 
2.180E+02   5.861E+01  2.866E-01 
2.209E+02   5.887E+01  2.838E-01 
2.237E+02   5.912E+01  2.810E-01 
2.266E+02   5.936E+01  2.782E-01 
2.296E+02   5.961E+01  2.755E-01 
2.326E+02   5.985E+01  2.727E-01 
2.356E+02   6.009E+01  2.700E-01 
2.387E+02   6.033E+01  2.673E-01 
2.418E+02   6.056E+01  2.647E-01 
2.449E+02   6.080E+01  2.621E-01 
2.481E+02   6.102E+01  2.595E-01 
2.513E+02   6.125E+01  2.569E-01 
2.546E+02   6.147E+01  2.543E-01 
2.579E+02   6.169E+01  2.518E-01 
2.612E+02   6.191E+01  2.493E-01 
2.646E+02   6.213E+01  2.468E-01 
2.681E+02   6.234E+01  2.443E-01 
2.716E+02   6.254E+01  2.419E-01 
2.751E+02   6.275E+01  2.395E-01 
2.787E+02   6.295E+01  2.371E-01 
2.823E+02   6.315E+01  2.347E-01 
2.859E+02   6.334E+01  2.323E-01 
2.897E+02   6.353E+01  2.300E-01 
2.934E+02   6.372E+01  2.277E-01 
2.972E+02   6.390E+01  2.254E-01 
3.011E+02   6.408E+01  2.231E-01 
3.050E+02   6.426E+01  2.209E-01 
3.090E+02   6.443E+01  2.186E-01 
3.130E+02   6.460E+01  2.164E-01 
3.171E+02   6.476E+01  2.143E-01 
3.212E+02   6.492E+01  2.121E-01 
3.254E+02   6.508E+01  2.099E-01 
3.296E+02   6.523E+01  2.078E-01 
3.339E+02   6.538E+01  2.057E-01 
3.382E+02   6.552E+01  2.036E-01 
3.426E+02   6.566E+01  2.016E-01 
3.471E+02   6.580E+01  1.995E-01 
3.516E+02   6.593E+01  1.975E-01 
3.561E+02   6.605E+01  1.955E-01 
3.608E+02   6.618E+01  1.935E-01 
3.655E+02   6.629E+01  1.915E-01 
3.702E+02   6.641E+01  1.896E-01 
3.750E+02   6.651E+01  1.877E-01 
3.799E+02   6.662E+01  1.857E-01 
3.848E+02   6.672E+01  1.838E-01 
3.898E+02   6.681E+01  1.820E-01 
3.949E+02   6.690E+01  1.801E-01 
4.000E+02   6.699E+01  1.783E-01 
4.052E+02   6.707E+01  1.764E-01 
4.105E+02   6.714E+01  1.746E-01 
4.158E+02   6.722E+01  1.728E-01 
4.212E+02   6.728E+01  1.711E-01 
4.267E+02   6.734E+01  1.693E-01 
4.323E+02   6.740E+01  1.676E-01 
4.379E+02   6.745E+01  1.659E-01 
4.436E+02   6.750E+01  1.642E-01 
4.493E+02   6.754E+01  1.625E-01 
4.552E+02   6.758E+01  1.608E-01 
4.611E+02   6.761E+01  1.591E-01 
4.671E+02   6.764E+01  1.575E-01 
4.731E+02   6.766E+01  1.559E-01 
4.793E+02   6.768E+01  1.543E-01 
4.855E+02   6.769E+01  1.527E-01 
4.918E+02   6.770E+01  1.511E-01 
4.982E+02   6.770E+01  1.495E-01 
5.047E+02   6.770E+01  1.480E-01 
5.113E+02   6.769E+01  1.465E-01 
5.179E+02   6.768E+01  1.449E-01 
5.246E+02   6.767E+01  1.434E-01 
5.315E+02   6.764E+01  1.419E-01 
5.384E+02   6.762E+01  1.405E-01 
5.454E+02   6.759E+01  1.390E-01 
5.524E+02   6.755E+01  1.376E-01 
5.596E+02   6.751E+01  1.361E-01 
5.669E+02   6.746E+01  1.347E-01 
5.743E+02   6.741E+01  1.333E-01 
5.817E+02   6.736E+01  1.319E-01 
5.893E+02   6.730E+01  1.306E-01 
5.969E+02   6.723E+01  1.292E-01 
6.047E+02   6.716E+01  1.279E-01 
6.126E+02   6.709E+01  1.265E-01 
6.205E+02   6.701E+01  1.252E-01 
6.286E+02   6.693E+01  1.239E-01 
6.368E+02   6.684E+01  1.226E-01 
6.450E+02   6.675E+01  1.213E-01 
6.534E+02   6.665E+01  1.200E-01 
6.619E+02   6.655E+01  1.188E-01 
6.705E+02   6.644E+01  1.175E-01 
6.792E+02   6.633E+01  1.163E-01 
6.881E+02   6.621E+01  1.151E-01 
6.970E+02   6.609E+01  1.139E-01 
7.061E+02   6.597E+01  1.127E-01 
7.152E+02   6.584E+01  1.115E-01 
7.245E+02   6.571E+01  1.103E-01 
7.339E+02   6.558E+01  1.092E-01 
7.435E+02   6.543E+01  1.080E-01 
7.531E+02   6.529E+01  1.069E-01 
7.629E+02   6.514E+01  1.058E-01 
7.728E+02   6.499E+01  1.047E-01 
7.829E+02   6.483E+01  1.035E-01 
7.931E+02   6.467E+01  1.025E-01 
8.034E+02   6.451E+01  1.014E-01 
8.138E+02   6.434E+01  1.003E-01 
8.244E+02   6.417E+01  9.925E-02 
8.351E+02   6.399E+01  9.820E-02 
8.460E+02   6.382E+01  9.716E-02 
8.570E+02   6.363E+01  9.613E-02 
8.681E+02   6.345E+01  9.512E-02 
8.794E+02   6.326E+01  9.411E-02 
8.908E+02   6.307E+01  9.311E-02 
9.024E+02   6.287E+01  9.213E-02 
9.141E+02   6.267E+01  9.115E-02 
9.260E+02   6.247E+01  9.018E-02 
9.380E+02   6.226E+01  8.922E-02 
9.502E+02   6.206E+01  8.828E-02 
9.626E+02   6.184E+01  8.734E-02 
9.751E+02   6.163E+01  8.641E-02 
9.877E+02   6.141E+01  8.549E-02 
1.001E+03   6.119E+01  8.458E-02 
1.014E+03   6.097E+01  8.368E-02 
1.027E+03   6.074E+01  8.279E-02 
1.040E+03   6.052E+01  8.191E-02 
1.054E+03   6.029E+01  8.104E-02 
1.067E+03   6.005E+01  8.017E-02 
1.081E+03   5.982E+01  7.932E-02 
1.095E+03   5.958E+01  7.847E-02 
1.109E+03   5.934E+01  7.764E-02 
1.124E+03   5.910E+01  7.681E-02 
1.138E+03   5.885E+01  7.599E-02 
1.153E+03   5.860E+01  7.517E-02 
1.168E+03   5.835E+01  7.437E-02 
1.183E+03   5.810E+01  7.357E-02 
1.199E+03   5.785E+01  7.279E-02 
1.214E+03   5.760E+01  7.201E-02 
1.230E+03   5.734E+01  7.124E-02 
1.246E+03   5.708E+01  7.047E-02 
1.262E+03   5.682E+01  6.972E-02 
1.279E+03   5.656E+01  6.897E-02 
1.295E+03   5.629E+01  6.823E-02 
1.312E+03   5.603E+01  6.750E-02 
1.329E+03   5.576E+01  6.677E-02 
1.347E+03   5.550E+01  6.605E-02 
1.364E+03   5.523E+01  6.534E-02 
1.382E+03   5.496E+01  6.464E-02 
1.400E+03   5.468E+01  6.395E-02 
1.418E+03   5.441E+01  6.326E-02 
1.436E+03   5.414E+01  6.258E-02 
1.455E+03   5.386E+01  6.190E-02 
1.474E+03   5.358E+01  6.124E-02 
1.493E+03   5.331E+01  6.058E-02 
1.513E+03   5.303E+01  5.992E-02 
1.532E+03   5.275E+01  5.928E-02 
1.552E+03   5.247E+01  5.864E-02 
1.572E+03   5.219E+01  5.801E-02 
1.593E+03   5.191E+01  5.738E-02 
1.613E+03   5.163E+01  5.676E-02 
1.634E+03   5.134E+01  5.615E-02 
1.656E+03   5.106E+01  5.554E-02 
1.677E+03   5.078E+01  5.494E-02 
1.699E+03   5.049E+01  5.434E-02 
1.721E+03   5.021E+01  5.376E-02 
1.743E+03   4.992E+01  5.317E-02 
1.766E+03   4.964E+01  5.260E-02 
1.789E+03   4.935E+01  5.203E-02 
1.812E+03   4.907E+01  5.146E-02 
1.836E+03   4.878E+01  5.091E-02 
1.860E+03   4.849E+01  5.035E-02 
