Ion = Hydrogen    . Mass = 1.0079
Tgt = Ra (Solid). Density = 5.0222 g/cm3
Stopping Units =  eV/(1E15 atoms/cm2)
Energy(keV)  S(Elec)    S(Nuc)
1.000E+00   1.002E+01  2.393E-01 
1.012E+00   1.008E+01  2.397E-01 
1.023E+00   1.014E+01  2.401E-01 
1.035E+00   1.020E+01  2.404E-01 
1.047E+00   1.025E+01  2.408E-01 
1.059E+00   1.031E+01  2.412E-01 
1.072E+00   1.037E+01  2.415E-01 
1.084E+00   1.043E+01  2.419E-01 
1.097E+00   1.049E+01  2.423E-01 
1.109E+00   1.055E+01  2.426E-01 
1.122E+00   1.062E+01  2.430E-01 
1.135E+00   1.068E+01  2.433E-01 
1.148E+00   1.074E+01  2.437E-01 
1.162E+00   1.080E+01  2.440E-01 
1.175E+00   1.086E+01  2.443E-01 
1.189E+00   1.093E+01  2.447E-01 
1.203E+00   1.099E+01  2.450E-01 
1.217E+00   1.105E+01  2.454E-01 
1.231E+00   1.112E+01  2.457E-01 
1.245E+00   1.118E+01  2.460E-01 
1.259E+00   1.125E+01  2.463E-01 
1.274E+00   1.131E+01  2.467E-01 
1.289E+00   1.138E+01  2.470E-01 
1.304E+00   1.144E+01  2.473E-01 
1.319E+00   1.151E+01  2.476E-01 
1.334E+00   1.157E+01  2.479E-01 
1.350E+00   1.164E+01  2.482E-01 
1.365E+00   1.171E+01  2.485E-01 
1.381E+00   1.178E+01  2.488E-01 
1.397E+00   1.185E+01  2.491E-01 
1.413E+00   1.191E+01  2.494E-01 
1.430E+00   1.198E+01  2.497E-01 
1.446E+00   1.205E+01  2.500E-01 
1.463E+00   1.212E+01  2.502E-01 
1.480E+00   1.219E+01  2.505E-01 
1.497E+00   1.226E+01  2.508E-01 
1.515E+00   1.233E+01  2.511E-01 
1.532E+00   1.240E+01  2.513E-01 
1.550E+00   1.248E+01  2.516E-01 
1.568E+00   1.255E+01  2.519E-01 
1.586E+00   1.262E+01  2.521E-01 
1.605E+00   1.269E+01  2.524E-01 
1.623E+00   1.277E+01  2.526E-01 
1.642E+00   1.284E+01  2.529E-01 
1.661E+00   1.292E+01  2.531E-01 
1.680E+00   1.299E+01  2.533E-01 
1.700E+00   1.306E+01  2.536E-01 
1.719E+00   1.314E+01  2.538E-01 
1.739E+00   1.322E+01  2.540E-01 
1.760E+00   1.329E+01  2.543E-01 
1.780E+00   1.337E+01  2.545E-01 
1.801E+00   1.345E+01  2.547E-01 
1.822E+00   1.352E+01  2.549E-01 
1.843E+00   1.360E+01  2.551E-01 
1.864E+00   1.368E+01  2.553E-01 
1.886E+00   1.376E+01  2.555E-01 
1.908E+00   1.384E+01  2.557E-01 
1.930E+00   1.392E+01  2.559E-01 
1.952E+00   1.400E+01  2.561E-01 
1.975E+00   1.408E+01  2.563E-01 
1.998E+00   1.416E+01  2.565E-01 
2.021E+00   1.424E+01  2.567E-01 
2.044E+00   1.431E+01  2.568E-01 
2.068E+00   1.438E+01  2.570E-01 
2.092E+00   1.445E+01  2.572E-01 
2.116E+00   1.452E+01  2.573E-01 
2.141E+00   1.459E+01  2.575E-01 
2.166E+00   1.466E+01  2.576E-01 
2.191E+00   1.473E+01  2.578E-01 
2.216E+00   1.480E+01  2.579E-01 
2.242E+00   1.487E+01  2.581E-01 
2.268E+00   1.494E+01  2.582E-01 
2.294E+00   1.501E+01  2.583E-01 
2.321E+00   1.508E+01  2.585E-01 
2.348E+00   1.515E+01  2.586E-01 
2.375E+00   1.523E+01  2.587E-01 
2.402E+00   1.530E+01  2.588E-01 
2.430E+00   1.537E+01  2.590E-01 
2.458E+00   1.544E+01  2.591E-01 
2.487E+00   1.552E+01  2.592E-01 
2.516E+00   1.559E+01  2.593E-01 
2.545E+00   1.567E+01  2.594E-01 
2.574E+00   1.574E+01  2.594E-01 
2.604E+00   1.582E+01  2.595E-01 
2.635E+00   1.589E+01  2.596E-01 
2.665E+00   1.597E+01  2.597E-01 
2.696E+00   1.604E+01  2.598E-01 
2.727E+00   1.612E+01  2.598E-01 
2.759E+00   1.620E+01  2.599E-01 
2.791E+00   1.628E+01  2.600E-01 
2.823E+00   1.635E+01  2.600E-01 
2.856E+00   1.643E+01  2.601E-01 
2.889E+00   1.651E+01  2.601E-01 
2.923E+00   1.659E+01  2.601E-01 
2.957E+00   1.667E+01  2.602E-01 
2.991E+00   1.675E+01  2.602E-01 
3.026E+00   1.683E+01  2.602E-01 
3.061E+00   1.691E+01  2.603E-01 
3.096E+00   1.699E+01  2.603E-01 
3.132E+00   1.707E+01  2.603E-01 
3.168E+00   1.715E+01  2.603E-01 
3.205E+00   1.723E+01  2.603E-01 
3.242E+00   1.731E+01  2.603E-01 
3.280E+00   1.740E+01  2.603E-01 
3.318E+00   1.748E+01  2.603E-01 
3.356E+00   1.756E+01  2.603E-01 
3.395E+00   1.765E+01  2.603E-01 
3.435E+00   1.773E+01  2.602E-01 
3.475E+00   1.782E+01  2.602E-01 
3.515E+00   1.790E+01  2.602E-01 
3.556E+00   1.799E+01  2.601E-01 
3.597E+00   1.807E+01  2.601E-01 
3.639E+00   1.816E+01  2.600E-01 
3.681E+00   1.825E+01  2.600E-01 
3.724E+00   1.833E+01  2.599E-01 
3.767E+00   1.842E+01  2.598E-01 
3.810E+00   1.851E+01  2.598E-01 
3.855E+00   1.860E+01  2.597E-01 
3.899E+00   1.868E+01  2.596E-01 
3.945E+00   1.877E+01  2.595E-01 
3.990E+00   1.886E+01  2.595E-01 
4.037E+00   1.895E+01  2.594E-01 
4.083E+00   1.904E+01  2.593E-01 
4.131E+00   1.913E+01  2.592E-01 
4.179E+00   1.922E+01  2.590E-01 
4.227E+00   1.932E+01  2.589E-01 
4.276E+00   1.941E+01  2.588E-01 
4.326E+00   1.950E+01  2.587E-01 
4.376E+00   1.959E+01  2.586E-01 
4.427E+00   1.969E+01  2.584E-01 
4.478E+00   1.978E+01  2.583E-01 
4.530E+00   1.987E+01  2.581E-01 
4.583E+00   1.997E+01  2.580E-01 
4.636E+00   2.006E+01  2.578E-01 
4.690E+00   2.016E+01  2.577E-01 
4.744E+00   2.025E+01  2.575E-01 
4.799E+00   2.035E+01  2.573E-01 
4.855E+00   2.045E+01  2.572E-01 
4.911E+00   2.055E+01  2.570E-01 
4.968E+00   2.064E+01  2.568E-01 
5.026E+00   2.074E+01  2.566E-01 
5.084E+00   2.084E+01  2.564E-01 
5.143E+00   2.094E+01  2.562E-01 
5.202E+00   2.104E+01  2.560E-01 
5.263E+00   2.114E+01  2.558E-01 
5.324E+00   2.124E+01  2.556E-01 
5.386E+00   2.134E+01  2.553E-01 
5.448E+00   2.144E+01  2.551E-01 
5.511E+00   2.154E+01  2.549E-01 
5.575E+00   2.164E+01  2.546E-01 
5.640E+00   2.175E+01  2.544E-01 
5.705E+00   2.185E+01  2.542E-01 
5.771E+00   2.195E+01  2.539E-01 
5.838E+00   2.206E+01  2.536E-01 
5.906E+00   2.216E+01  2.534E-01 
5.975E+00   2.227E+01  2.531E-01 
6.044E+00   2.237E+01  2.528E-01 
6.114E+00   2.248E+01  2.526E-01 
6.185E+00   2.258E+01  2.523E-01 
6.257E+00   2.269E+01  2.520E-01 
6.329E+00   2.280E+01  2.517E-01 
6.403E+00   2.291E+01  2.514E-01 
6.477E+00   2.302E+01  2.511E-01 
6.552E+00   2.312E+01  2.508E-01 
6.628E+00   2.323E+01  2.504E-01 
6.705E+00   2.334E+01  2.501E-01 
6.783E+00   2.345E+01  2.498E-01 
6.861E+00   2.356E+01  2.495E-01 
6.941E+00   2.368E+01  2.491E-01 
7.021E+00   2.379E+01  2.488E-01 
7.103E+00   2.390E+01  2.484E-01 
7.185E+00   2.401E+01  2.481E-01 
7.269E+00   2.413E+01  2.477E-01 
7.353E+00   2.424E+01  2.474E-01 
7.438E+00   2.435E+01  2.470E-01 
7.524E+00   2.447E+01  2.466E-01 
7.612E+00   2.458E+01  2.462E-01 
7.700E+00   2.470E+01  2.459E-01 
7.789E+00   2.482E+01  2.455E-01 
7.880E+00   2.493E+01  2.451E-01 
7.971E+00   2.505E+01  2.447E-01 
8.064E+00   2.517E+01  2.443E-01 
8.157E+00   2.529E+01  2.439E-01 
8.252E+00   2.541E+01  2.434E-01 
8.347E+00   2.553E+01  2.430E-01 
8.444E+00   2.565E+01  2.426E-01 
8.542E+00   2.577E+01  2.422E-01 
8.641E+00   2.589E+01  2.417E-01 
8.741E+00   2.601E+01  2.413E-01 
8.843E+00   2.613E+01  2.409E-01 
8.945E+00   2.625E+01  2.404E-01 
9.049E+00   2.638E+01  2.400E-01 
9.154E+00   2.650E+01  2.395E-01 
9.260E+00   2.662E+01  2.390E-01 
9.368E+00   2.675E+01  2.386E-01 
9.476E+00   2.687E+01  2.381E-01 
9.586E+00   2.700E+01  2.376E-01 
9.698E+00   2.713E+01  2.371E-01 
9.810E+00   2.725E+01  2.366E-01 
9.924E+00   2.738E+01  2.361E-01 
1.004E+01   2.751E+01  2.356E-01 
1.016E+01   2.764E+01  2.351E-01 
1.027E+01   2.777E+01  2.346E-01 
1.039E+01   2.790E+01  2.341E-01 
1.051E+01   2.803E+01  2.336E-01 
1.063E+01   2.816E+01  2.331E-01 
1.076E+01   2.829E+01  2.326E-01 
1.088E+01   2.842E+01  2.320E-01 
1.101E+01   2.855E+01  2.315E-01 
1.114E+01   2.868E+01  2.310E-01 
1.127E+01   2.882E+01  2.304E-01 
1.140E+01   2.895E+01  2.299E-01 
1.153E+01   2.909E+01  2.293E-01 
1.166E+01   2.922E+01  2.288E-01 
1.180E+01   2.936E+01  2.282E-01 
1.193E+01   2.949E+01  2.276E-01 
1.207E+01   2.963E+01  2.271E-01 
1.221E+01   2.977E+01  2.265E-01 
1.235E+01   2.990E+01  2.259E-01 
1.250E+01   3.004E+01  2.253E-01 
1.264E+01   3.018E+01  2.248E-01 
1.279E+01   3.032E+01  2.242E-01 
1.294E+01   3.046E+01  2.236E-01 
1.309E+01   3.060E+01  2.230E-01 
1.324E+01   3.074E+01  2.224E-01 
1.339E+01   3.088E+01  2.218E-01 
1.355E+01   3.103E+01  2.212E-01 
1.371E+01   3.117E+01  2.205E-01 
1.387E+01   3.131E+01  2.199E-01 
1.403E+01   3.145E+01  2.193E-01 
1.419E+01   3.160E+01  2.187E-01 
1.435E+01   3.174E+01  2.181E-01 
1.452E+01   3.189E+01  2.174E-01 
1.469E+01   3.204E+01  2.168E-01 
1.486E+01   3.218E+01  2.161E-01 
1.503E+01   3.233E+01  2.155E-01 
1.521E+01   3.248E+01  2.149E-01 
1.538E+01   3.262E+01  2.142E-01 
1.556E+01   3.277E+01  2.136E-01 
1.574E+01   3.292E+01  2.129E-01 
1.592E+01   3.307E+01  2.122E-01 
1.611E+01   3.322E+01  2.116E-01 
1.629E+01   3.337E+01  2.109E-01 
1.648E+01   3.352E+01  2.102E-01 
1.667E+01   3.368E+01  2.096E-01 
1.687E+01   3.383E+01  2.089E-01 
1.706E+01   3.398E+01  2.082E-01 
1.726E+01   3.413E+01  2.075E-01 
1.746E+01   3.429E+01  2.068E-01 
1.766E+01   3.444E+01  2.062E-01 
1.787E+01   3.460E+01  2.055E-01 
1.808E+01   3.475E+01  2.048E-01 
1.829E+01   3.491E+01  2.041E-01 
1.850E+01   3.507E+01  2.034E-01 
1.871E+01   3.522E+01  2.027E-01 
1.893E+01   3.538E+01  2.020E-01 
1.915E+01   3.554E+01  2.013E-01 
1.937E+01   3.570E+01  2.005E-01 
1.960E+01   3.586E+01  1.998E-01 
1.982E+01   3.602E+01  1.991E-01 
2.005E+01   3.618E+01  1.984E-01 
2.029E+01   3.634E+01  1.977E-01 
2.052E+01   3.650E+01  1.970E-01 
2.076E+01   3.666E+01  1.962E-01 
2.100E+01   3.682E+01  1.955E-01 
2.124E+01   3.698E+01  1.948E-01 
2.149E+01   3.715E+01  1.940E-01 
2.174E+01   3.731E+01  1.933E-01 
2.199E+01   3.747E+01  1.926E-01 
2.225E+01   3.764E+01  1.918E-01 
2.250E+01   3.780E+01  1.911E-01 
2.277E+01   3.797E+01  1.904E-01 
2.303E+01   3.813E+01  1.896E-01 
2.330E+01   3.830E+01  1.889E-01 
2.357E+01   3.846E+01  1.881E-01 
2.384E+01   3.863E+01  1.874E-01 
2.412E+01   3.880E+01  1.866E-01 
2.440E+01   3.897E+01  1.859E-01 
2.468E+01   3.913E+01  1.851E-01 
2.497E+01   3.930E+01  1.844E-01 
2.526E+01   3.947E+01  1.836E-01 
2.555E+01   3.964E+01  1.828E-01 
2.584E+01   3.981E+01  1.821E-01 
2.614E+01   3.998E+01  1.813E-01 
2.645E+01   4.015E+01  1.806E-01 
2.675E+01   4.032E+01  1.798E-01 
2.707E+01   4.049E+01  1.790E-01 
2.738E+01   4.066E+01  1.783E-01 
2.770E+01   4.084E+01  1.775E-01 
2.802E+01   4.101E+01  1.767E-01 
2.834E+01   4.118E+01  1.760E-01 
2.867E+01   4.135E+01  1.752E-01 
2.900E+01   4.153E+01  1.744E-01 
2.934E+01   4.170E+01  1.737E-01 
2.968E+01   4.187E+01  1.729E-01 
3.003E+01   4.205E+01  1.721E-01 
3.037E+01   4.222E+01  1.713E-01 
3.073E+01   4.240E+01  1.706E-01 
3.108E+01   4.257E+01  1.698E-01 
3.144E+01   4.274E+01  1.690E-01 
3.181E+01   4.292E+01  1.682E-01 
3.218E+01   4.309E+01  1.675E-01 
3.255E+01   4.327E+01  1.667E-01 
3.293E+01   4.345E+01  1.659E-01 
3.331E+01   4.362E+01  1.651E-01 
3.370E+01   4.380E+01  1.644E-01 
3.409E+01   4.397E+01  1.636E-01 
3.448E+01   4.415E+01  1.628E-01 
3.488E+01   4.433E+01  1.620E-01 
3.529E+01   4.450E+01  1.613E-01 
3.570E+01   4.468E+01  1.605E-01 
3.611E+01   4.485E+01  1.597E-01 
3.653E+01   4.503E+01  1.589E-01 
3.695E+01   4.521E+01  1.581E-01 
3.738E+01   4.538E+01  1.574E-01 
3.781E+01   4.556E+01  1.566E-01 
3.825E+01   4.574E+01  1.558E-01 
3.870E+01   4.591E+01  1.550E-01 
3.915E+01   4.609E+01  1.543E-01 
3.960E+01   4.627E+01  1.535E-01 
4.006E+01   4.644E+01  1.527E-01 
4.052E+01   4.662E+01  1.519E-01 
4.099E+01   4.679E+01  1.512E-01 
4.147E+01   4.697E+01  1.504E-01 
4.195E+01   4.715E+01  1.496E-01 
4.244E+01   4.732E+01  1.488E-01 
4.293E+01   4.750E+01  1.481E-01 
4.343E+01   4.767E+01  1.473E-01 
4.393E+01   4.785E+01  1.465E-01 
4.444E+01   4.802E+01  1.458E-01 
4.496E+01   4.819E+01  1.450E-01 
4.548E+01   4.837E+01  1.442E-01 
4.600E+01   4.854E+01  1.435E-01 
4.654E+01   4.872E+01  1.427E-01 
4.708E+01   4.889E+01  1.419E-01 
4.762E+01   4.906E+01  1.412E-01 
4.818E+01   4.923E+01  1.404E-01 
4.873E+01   4.940E+01  1.396E-01 
4.930E+01   4.957E+01  1.389E-01 
4.987E+01   4.975E+01  1.381E-01 
5.045E+01   4.992E+01  1.374E-01 
5.104E+01   5.008E+01  1.366E-01 
5.163E+01   5.025E+01  1.358E-01 
5.223E+01   5.042E+01  1.351E-01 
5.283E+01   5.059E+01  1.343E-01 
5.344E+01   5.076E+01  1.336E-01 
5.406E+01   5.092E+01  1.328E-01 
5.469E+01   5.109E+01  1.321E-01 
5.533E+01   5.125E+01  1.313E-01 
5.597E+01   5.142E+01  1.306E-01 
5.662E+01   5.158E+01  1.298E-01 
5.727E+01   5.174E+01  1.291E-01 
5.794E+01   5.190E+01  1.284E-01 
5.861E+01   5.206E+01  1.276E-01 
5.929E+01   5.222E+01  1.269E-01 
5.998E+01   5.238E+01  1.261E-01 
6.067E+01   5.254E+01  1.254E-01 
6.138E+01   5.269E+01  1.247E-01 
6.209E+01   5.285E+01  1.239E-01 
6.281E+01   5.300E+01  1.232E-01 
6.354E+01   5.315E+01  1.225E-01 
6.427E+01   5.331E+01  1.218E-01 
6.502E+01   5.346E+01  1.210E-01 
6.577E+01   5.361E+01  1.203E-01 
6.654E+01   5.375E+01  1.196E-01 
6.731E+01   5.390E+01  1.189E-01 
6.809E+01   5.404E+01  1.182E-01 
6.888E+01   5.419E+01  1.175E-01 
6.968E+01   5.433E+01  1.167E-01 
7.049E+01   5.447E+01  1.160E-01 
7.130E+01   5.461E+01  1.153E-01 
7.213E+01   5.475E+01  1.146E-01 
7.297E+01   5.488E+01  1.139E-01 
7.381E+01   5.502E+01  1.132E-01 
7.467E+01   5.515E+01  1.125E-01 
7.554E+01   5.528E+01  1.118E-01 
7.641E+01   5.541E+01  1.111E-01 
7.730E+01   5.554E+01  1.104E-01 
7.820E+01   5.566E+01  1.097E-01 
7.910E+01   5.578E+01  1.091E-01 
8.002E+01   5.590E+01  1.084E-01 
8.095E+01   5.602E+01  1.077E-01 
8.189E+01   5.614E+01  1.070E-01 
8.284E+01   5.626E+01  1.063E-01 
8.380E+01   5.637E+01  1.057E-01 
8.477E+01   5.648E+01  1.050E-01 
8.575E+01   5.659E+01  1.043E-01 
8.675E+01   5.669E+01  1.036E-01 
8.775E+01   5.680E+01  1.030E-01 
8.877E+01   5.690E+01  1.023E-01 
8.980E+01   5.700E+01  1.016E-01 
9.084E+01   5.709E+01  1.010E-01 
9.190E+01   5.719E+01  1.003E-01 
9.296E+01   5.728E+01  9.967E-02 
9.404E+01   5.737E+01  9.902E-02 
9.513E+01   5.745E+01  9.837E-02 
9.624E+01   5.754E+01  9.773E-02 
9.735E+01   5.762E+01  9.708E-02 
9.848E+01   5.769E+01  9.644E-02 
9.962E+01   5.777E+01  9.580E-02 
1.008E+02   5.784E+01  9.517E-02 
1.019E+02   5.791E+01  9.453E-02 
1.031E+02   5.798E+01  9.390E-02 
1.043E+02   5.804E+01  9.328E-02 
1.055E+02   5.810E+01  9.265E-02 
1.068E+02   5.816E+01  9.203E-02 
1.080E+02   5.821E+01  9.141E-02 
1.093E+02   5.826E+01  9.079E-02 
1.105E+02   5.831E+01  9.017E-02 
1.118E+02   5.835E+01  8.956E-02 
1.131E+02   5.839E+01  8.895E-02 
1.144E+02   5.843E+01  8.835E-02 
1.157E+02   5.846E+01  8.774E-02 
1.171E+02   5.849E+01  8.714E-02 
1.184E+02   5.852E+01  8.654E-02 
1.198E+02   5.854E+01  8.595E-02 
1.212E+02   5.856E+01  8.535E-02 
1.226E+02   5.858E+01  8.476E-02 
1.240E+02   5.859E+01  8.418E-02 
1.255E+02   5.860E+01  8.359E-02 
1.269E+02   5.861E+01  8.301E-02 
1.284E+02   5.861E+01  8.243E-02 
1.299E+02   5.861E+01  8.185E-02 
1.314E+02   5.860E+01  8.128E-02 
1.329E+02   5.859E+01  8.071E-02 
1.345E+02   5.858E+01  8.014E-02 
1.360E+02   5.856E+01  7.957E-02 
1.376E+02   5.854E+01  7.901E-02 
1.392E+02   5.851E+01  7.845E-02 
1.408E+02   5.848E+01  7.790E-02 
1.424E+02   5.845E+01  7.734E-02 
1.441E+02   5.841E+01  7.679E-02 
1.458E+02   5.837E+01  7.624E-02 
1.475E+02   5.833E+01  7.570E-02 
1.492E+02   5.828E+01  7.515E-02 
1.509E+02   5.822E+01  7.461E-02 
1.526E+02   5.817E+01  7.408E-02 
1.544E+02   5.810E+01  7.354E-02 
1.562E+02   5.804E+01  7.301E-02 
1.580E+02   5.797E+01  7.248E-02 
1.598E+02   5.789E+01  7.195E-02 
1.617E+02   5.782E+01  7.143E-02 
1.636E+02   5.773E+01  7.091E-02 
1.655E+02   5.765E+01  7.039E-02 
1.674E+02   5.756E+01  6.988E-02 
1.693E+02   5.746E+01  6.937E-02 
1.713E+02   5.736E+01  6.886E-02 
1.733E+02   5.726E+01  6.835E-02 
1.753E+02   5.715E+01  6.785E-02 
1.773E+02   5.704E+01  6.734E-02 
1.794E+02   5.692E+01  6.685E-02 
1.815E+02   5.680E+01  6.635E-02 
1.836E+02   5.668E+01  6.586E-02 
1.857E+02   5.655E+01  6.537E-02 
1.879E+02   5.642E+01  6.488E-02 
1.900E+02   5.628E+01  6.440E-02 
1.922E+02   5.614E+01  6.392E-02 
1.945E+02   5.600E+01  6.344E-02 
1.967E+02   5.585E+01  6.296E-02 
1.990E+02   5.570E+01  6.249E-02 
2.013E+02   5.554E+01  6.202E-02 
2.036E+02   5.538E+01  6.155E-02 
2.060E+02   5.522E+01  6.109E-02 
2.084E+02   5.505E+01  6.062E-02 
2.108E+02   5.488E+01  6.016E-02 
2.133E+02   5.470E+01  5.971E-02 
2.157E+02   5.452E+01  5.925E-02 
2.182E+02   5.434E+01  5.880E-02 
2.208E+02   5.415E+01  5.835E-02 
2.233E+02   5.396E+01  5.791E-02 
2.259E+02   5.377E+01  5.746E-02 
2.285E+02   5.357E+01  5.702E-02 
2.312E+02   5.337E+01  5.659E-02 
2.339E+02   5.317E+01  5.615E-02 
2.366E+02   5.296E+01  5.572E-02 
2.393E+02   5.275E+01  5.529E-02 
2.421E+02   5.254E+01  5.486E-02 
2.449E+02   5.232E+01  5.444E-02 
2.478E+02   5.210E+01  5.401E-02 
2.506E+02   5.188E+01  5.360E-02 
2.535E+02   5.165E+01  5.318E-02 
2.565E+02   5.142E+01  5.277E-02 
2.595E+02   5.119E+01  5.235E-02 
2.625E+02   5.096E+01  5.194E-02 
2.655E+02   5.072E+01  5.154E-02 
2.686E+02   5.048E+01  5.114E-02 
2.717E+02   5.024E+01  5.073E-02 
2.749E+02   4.999E+01  5.034E-02 
2.780E+02   4.974E+01  4.994E-02 
2.813E+02   4.949E+01  4.955E-02 
2.845E+02   4.924E+01  4.916E-02 
2.878E+02   4.899E+01  4.877E-02 
2.912E+02   4.873E+01  4.838E-02 
2.945E+02   4.847E+01  4.800E-02 
2.980E+02   4.821E+01  4.762E-02 
3.014E+02   4.795E+01  4.724E-02 
3.049E+02   4.768E+01  4.686E-02 
3.085E+02   4.742E+01  4.649E-02 
3.120E+02   4.715E+01  4.907E-02 
3.156E+02   4.688E+01  4.867E-02 
3.193E+02   4.661E+01  4.827E-02 
3.230E+02   4.634E+01  4.788E-02 
3.268E+02   4.607E+01  4.749E-02 
3.306E+02   4.579E+01  4.710E-02 
3.344E+02   4.552E+01  4.672E-02 
3.383E+02   4.524E+01  4.633E-02 
3.422E+02   4.496E+01  4.595E-02 
3.462E+02   4.468E+01  4.558E-02 
3.502E+02   4.440E+01  4.520E-02 
3.542E+02   4.412E+01  4.483E-02 
3.583E+02   4.384E+01  4.446E-02 
3.625E+02   4.356E+01  4.409E-02 
3.667E+02   4.328E+01  4.373E-02 
3.710E+02   4.299E+01  4.337E-02 
3.753E+02   4.271E+01  4.301E-02 
3.796E+02   4.243E+01  4.265E-02 
3.840E+02   4.214E+01  4.230E-02 
3.885E+02   4.186E+01  4.195E-02 
3.930E+02   4.158E+01  4.160E-02 
3.975E+02   4.129E+01  4.125E-02 
4.021E+02   4.101E+01  4.091E-02 
4.068E+02   4.073E+01  4.056E-02 
4.115E+02   4.044E+01  4.022E-02 
4.163E+02   4.016E+01  3.989E-02 
4.211E+02   3.988E+01  3.955E-02 
4.260E+02   3.959E+01  3.922E-02 
4.310E+02   3.931E+01  3.889E-02 
4.360E+02   3.903E+01  3.856E-02 
4.410E+02   3.875E+01  3.824E-02 
4.461E+02   3.847E+01  3.792E-02 
4.513E+02   3.819E+01  3.760E-02 
4.565E+02   3.791E+01  3.728E-02 
4.618E+02   3.764E+01  3.696E-02 
4.672E+02   3.736E+01  3.665E-02 
4.726E+02   3.708E+01  3.634E-02 
4.781E+02   3.681E+01  3.603E-02 
4.836E+02   3.654E+01  3.573E-02 
4.892E+02   3.626E+01  3.542E-02 
4.949E+02   3.599E+01  3.512E-02 
5.007E+02   3.572E+01  3.482E-02 
5.065E+02   3.545E+01  3.453E-02 
5.123E+02   3.518E+01  3.423E-02 
5.183E+02   3.492E+01  3.394E-02 
5.243E+02   3.465E+01  3.365E-02 
5.304E+02   3.439E+01  3.336E-02 
5.365E+02   3.413E+01  3.307E-02 
5.428E+02   3.387E+01  3.279E-02 
5.490E+02   3.361E+01  3.251E-02 
5.554E+02   3.335E+01  3.223E-02 
5.619E+02   3.310E+01  3.195E-02 
5.684E+02   3.284E+01  3.168E-02 
5.750E+02   3.259E+01  3.140E-02 
5.816E+02   3.234E+01  3.113E-02 
5.884E+02   3.209E+01  3.086E-02 
5.952E+02   3.184E+01  3.060E-02 
6.021E+02   3.160E+01  3.033E-02 
6.091E+02   3.135E+01  3.007E-02 
6.162E+02   3.111E+01  2.981E-02 
6.233E+02   3.087E+01  2.955E-02 
6.305E+02   3.063E+01  2.929E-02 
6.378E+02   3.039E+01  2.904E-02 
6.452E+02   3.016E+01  2.879E-02 
6.527E+02   2.993E+01  2.853E-02 
6.603E+02   2.970E+01  2.829E-02 
6.680E+02   2.947E+01  2.804E-02 
6.757E+02   2.924E+01  2.779E-02 
6.835E+02   2.901E+01  2.755E-02 
6.915E+02   2.879E+01  2.731E-02 
6.995E+02   2.857E+01  2.707E-02 
7.076E+02   2.835E+01  2.683E-02 
7.158E+02   2.813E+01  2.660E-02 
7.241E+02   2.792E+01  2.637E-02 
7.325E+02   2.770E+01  2.613E-02 
7.410E+02   2.749E+01  2.590E-02 
7.496E+02   2.728E+01  2.568E-02 
7.583E+02   2.707E+01  2.545E-02 
7.671E+02   2.686E+01  2.523E-02 
7.760E+02   2.666E+01  2.500E-02 
7.850E+02   2.646E+01  2.478E-02 
7.941E+02   2.626E+01  2.456E-02 
8.033E+02   2.606E+01  2.435E-02 
8.126E+02   2.586E+01  2.413E-02 
8.221E+02   2.566E+01  2.392E-02 
8.316E+02   2.547E+01  2.371E-02 
