Ion = Helium      . Mass = 4.0026
Tgt =  S (Solid). Density = 2.0686 g/cm3
Stopping Units =  eV/(1E15 atoms/cm2)
Energy(keV)  S(Elec)    S(Nuc)
1.000E+00   3.149E+00  3.697E+00 
1.013E+00   3.170E+00  3.697E+00 
1.026E+00   3.190E+00  3.697E+00 
1.039E+00   3.211E+00  3.698E+00 
1.053E+00   3.232E+00  3.698E+00 
1.067E+00   3.253E+00  3.698E+00 
1.081E+00   3.274E+00  3.698E+00 
1.095E+00   3.295E+00  3.697E+00 
1.109E+00   3.316E+00  3.697E+00 
1.123E+00   3.338E+00  3.697E+00 
1.138E+00   3.359E+00  3.696E+00 
1.153E+00   3.381E+00  3.695E+00 
1.168E+00   3.403E+00  3.695E+00 
1.183E+00   3.425E+00  3.694E+00 
1.198E+00   3.447E+00  3.693E+00 
1.214E+00   3.469E+00  3.692E+00 
1.229E+00   3.492E+00  3.691E+00 
1.245E+00   3.515E+00  3.689E+00 
1.262E+00   3.537E+00  3.688E+00 
1.278E+00   3.560E+00  3.686E+00 
1.295E+00   3.583E+00  3.685E+00 
1.311E+00   3.606E+00  3.683E+00 
1.329E+00   3.630E+00  3.681E+00 
1.346E+00   3.653E+00  3.679E+00 
1.363E+00   3.677E+00  3.677E+00 
1.381E+00   3.701E+00  3.675E+00 
1.399E+00   3.725E+00  3.673E+00 
1.417E+00   3.749E+00  3.670E+00 
1.436E+00   3.773E+00  3.668E+00 
1.454E+00   3.798E+00  3.665E+00 
1.473E+00   3.822E+00  3.662E+00 
1.492E+00   3.847E+00  3.660E+00 
1.512E+00   3.872E+00  3.657E+00 
1.531E+00   3.897E+00  3.654E+00 
1.551E+00   3.922E+00  3.650E+00 
1.571E+00   3.948E+00  3.647E+00 
1.592E+00   3.973E+00  3.644E+00 
1.612E+00   3.999E+00  3.640E+00 
1.633E+00   4.025E+00  3.637E+00 
1.655E+00   4.051E+00  3.633E+00 
1.676E+00   4.077E+00  3.629E+00 
1.698E+00   4.104E+00  3.625E+00 
1.720E+00   4.130E+00  3.621E+00 
1.742E+00   4.157E+00  3.617E+00 
1.765E+00   4.184E+00  3.613E+00 
1.788E+00   4.211E+00  3.608E+00 
1.811E+00   4.238E+00  3.604E+00 
1.835E+00   4.266E+00  3.599E+00 
1.859E+00   4.293E+00  3.595E+00 
1.883E+00   4.321E+00  3.590E+00 
1.907E+00   4.349E+00  3.585E+00 
1.932E+00   4.377E+00  3.580E+00 
1.957E+00   4.406E+00  3.575E+00 
1.983E+00   4.434E+00  3.569E+00 
2.008E+00   4.463E+00  3.564E+00 
2.034E+00   4.492E+00  3.558E+00 
2.061E+00   4.521E+00  3.553E+00 
2.088E+00   4.550E+00  3.547E+00 
2.115E+00   4.580E+00  3.541E+00 
2.142E+00   4.609E+00  3.536E+00 
2.170E+00   4.639E+00  3.530E+00 
2.198E+00   4.669E+00  3.523E+00 
2.227E+00   4.699E+00  3.517E+00 
2.256E+00   4.730E+00  3.511E+00 
2.285E+00   4.761E+00  3.504E+00 
2.315E+00   4.791E+00  3.498E+00 
2.345E+00   4.822E+00  3.491E+00 
2.375E+00   4.854E+00  3.485E+00 
2.406E+00   4.885E+00  3.478E+00 
2.438E+00   4.917E+00  3.471E+00 
2.469E+00   4.949E+00  3.464E+00 
2.501E+00   4.981E+00  3.457E+00 
2.534E+00   5.013E+00  3.449E+00 
2.567E+00   5.045E+00  3.442E+00 
2.600E+00   5.078E+00  3.434E+00 
2.634E+00   5.111E+00  3.427E+00 
2.668E+00   5.144E+00  3.419E+00 
2.703E+00   5.177E+00  3.412E+00 
2.738E+00   5.211E+00  3.404E+00 
2.773E+00   5.245E+00  3.396E+00 
2.810E+00   5.279E+00  3.388E+00 
2.846E+00   5.313E+00  3.380E+00 
2.883E+00   5.347E+00  3.371E+00 
2.921E+00   5.382E+00  3.363E+00 
2.958E+00   5.417E+00  3.355E+00 
2.997E+00   5.452E+00  3.346E+00 
3.036E+00   5.487E+00  3.338E+00 
3.075E+00   5.523E+00  3.329E+00 
3.115E+00   5.558E+00  3.320E+00 
3.156E+00   5.594E+00  3.311E+00 
3.197E+00   5.631E+00  3.302E+00 
3.238E+00   5.667E+00  3.293E+00 
3.280E+00   5.704E+00  3.284E+00 
3.323E+00   5.741E+00  3.275E+00 
3.366E+00   5.778E+00  3.266E+00 
3.410E+00   5.815E+00  3.256E+00 
3.454E+00   5.853E+00  3.247E+00 
3.499E+00   5.891E+00  3.237E+00 
3.545E+00   5.929E+00  3.227E+00 
3.591E+00   5.968E+00  3.218E+00 
3.637E+00   6.006E+00  3.208E+00 
3.685E+00   6.045E+00  3.198E+00 
3.733E+00   6.084E+00  3.188E+00 
3.781E+00   6.124E+00  3.178E+00 
3.830E+00   6.163E+00  3.168E+00 
3.880E+00   6.203E+00  3.158E+00 
3.930E+00   6.243E+00  3.148E+00 
3.982E+00   6.284E+00  3.137E+00 
4.033E+00   6.325E+00  3.127E+00 
4.086E+00   6.365E+00  3.116E+00 
4.139E+00   6.407E+00  3.106E+00 
4.193E+00   6.448E+00  3.095E+00 
4.247E+00   6.490E+00  3.085E+00 
4.302E+00   6.532E+00  3.074E+00 
4.358E+00   6.574E+00  3.063E+00 
4.415E+00   6.617E+00  3.052E+00 
4.472E+00   6.660E+00  3.041E+00 
4.530E+00   6.703E+00  3.030E+00 
4.589E+00   6.746E+00  3.019E+00 
4.649E+00   6.790E+00  3.008E+00 
4.709E+00   6.834E+00  2.997E+00 
4.770E+00   6.878E+00  2.985E+00 
4.832E+00   6.923E+00  2.974E+00 
4.895E+00   6.968E+00  2.963E+00 
4.959E+00   7.013E+00  2.951E+00 
5.023E+00   7.058E+00  2.940E+00 
5.089E+00   7.104E+00  2.928E+00 
5.155E+00   7.150E+00  2.917E+00 
5.222E+00   7.196E+00  2.905E+00 
5.290E+00   7.243E+00  2.893E+00 
5.358E+00   7.290E+00  2.882E+00 
5.428E+00   7.337E+00  2.870E+00 
5.499E+00   7.385E+00  2.858E+00 
5.570E+00   7.432E+00  2.846E+00 
5.642E+00   7.481E+00  2.834E+00 
5.716E+00   7.529E+00  2.822E+00 
5.790E+00   7.578E+00  2.810E+00 
5.865E+00   7.627E+00  2.798E+00 
5.942E+00   7.676E+00  2.786E+00 
6.019E+00   7.726E+00  2.774E+00 
6.097E+00   7.776E+00  2.762E+00 
6.176E+00   7.826E+00  2.750E+00 
6.256E+00   7.877E+00  2.738E+00 
6.338E+00   7.928E+00  2.725E+00 
6.420E+00   7.979E+00  2.713E+00 
6.504E+00   8.031E+00  2.701E+00 
6.588E+00   8.083E+00  2.688E+00 
6.674E+00   8.135E+00  2.676E+00 
6.760E+00   8.188E+00  2.663E+00 
6.848E+00   8.241E+00  2.651E+00 
6.937E+00   8.295E+00  2.639E+00 
7.027E+00   8.348E+00  2.626E+00 
7.119E+00   8.402E+00  2.614E+00 
7.211E+00   8.457E+00  2.601E+00 
7.305E+00   8.512E+00  2.588E+00 
7.400E+00   8.567E+00  2.576E+00 
7.496E+00   8.622E+00  2.563E+00 
7.594E+00   8.678E+00  2.551E+00 
7.692E+00   8.734E+00  2.538E+00 
7.792E+00   8.791E+00  2.525E+00 
7.894E+00   8.848E+00  2.513E+00 
7.996E+00   8.905E+00  2.500E+00 
8.100E+00   8.970E+00  2.487E+00 
8.205E+00   9.037E+00  2.474E+00 
8.312E+00   9.104E+00  2.462E+00 
8.420E+00   9.172E+00  2.449E+00 
8.529E+00   9.241E+00  2.436E+00 
8.640E+00   9.310E+00  2.424E+00 
8.753E+00   9.381E+00  2.411E+00 
8.866E+00   9.452E+00  2.398E+00 
8.982E+00   9.524E+00  2.385E+00 
9.098E+00   9.596E+00  2.372E+00 
9.217E+00   9.670E+00  2.360E+00 
9.336E+00   9.744E+00  2.347E+00 
9.458E+00   9.820E+00  2.334E+00 
9.581E+00   9.896E+00  2.321E+00 
9.705E+00   9.973E+00  2.309E+00 
9.831E+00   1.005E+01  2.296E+00 
9.959E+00   1.013E+01  2.283E+00 
1.009E+01   1.021E+01  2.270E+00 
1.022E+01   1.029E+01  2.257E+00 
1.035E+01   1.037E+01  2.245E+00 
1.049E+01   1.045E+01  2.232E+00 
1.062E+01   1.054E+01  2.219E+00 
1.076E+01   1.062E+01  2.206E+00 
1.090E+01   1.071E+01  2.194E+00 
1.104E+01   1.079E+01  2.181E+00 
1.119E+01   1.088E+01  2.168E+00 
1.133E+01   1.097E+01  2.156E+00 
1.148E+01   1.106E+01  2.143E+00 
1.163E+01   1.115E+01  2.130E+00 
1.178E+01   1.124E+01  2.118E+00 
1.193E+01   1.133E+01  2.105E+00 
1.209E+01   1.142E+01  2.092E+00 
1.224E+01   1.152E+01  2.080E+00 
1.240E+01   1.161E+01  2.067E+00 
1.256E+01   1.171E+01  2.055E+00 
1.273E+01   1.181E+01  2.042E+00 
1.289E+01   1.190E+01  2.030E+00 
1.306E+01   1.200E+01  2.017E+00 
1.323E+01   1.210E+01  2.005E+00 
1.340E+01   1.221E+01  1.992E+00 
1.358E+01   1.231E+01  1.980E+00 
1.375E+01   1.241E+01  1.967E+00 
1.393E+01   1.252E+01  1.955E+00 
1.411E+01   1.262E+01  1.943E+00 
1.430E+01   1.273E+01  1.930E+00 
1.448E+01   1.284E+01  1.918E+00 
1.467E+01   1.295E+01  1.906E+00 
1.486E+01   1.306E+01  1.893E+00 
1.505E+01   1.317E+01  1.881E+00 
1.525E+01   1.329E+01  1.869E+00 
1.545E+01   1.340E+01  1.857E+00 
1.565E+01   1.352E+01  1.845E+00 
1.585E+01   1.364E+01  1.833E+00 
1.606E+01   1.376E+01  1.821E+00 
1.627E+01   1.388E+01  1.809E+00 
1.648E+01   1.400E+01  1.797E+00 
1.669E+01   1.412E+01  1.785E+00 
1.691E+01   1.424E+01  1.773E+00 
1.713E+01   1.437E+01  1.761E+00 
1.735E+01   1.450E+01  1.749E+00 
1.758E+01   1.462E+01  1.737E+00 
1.781E+01   1.475E+01  1.725E+00 
1.804E+01   1.488E+01  1.714E+00 
1.827E+01   1.502E+01  1.702E+00 
1.851E+01   1.515E+01  1.690E+00 
1.875E+01   1.529E+01  1.679E+00 
1.899E+01   1.542E+01  1.667E+00 
1.924E+01   1.556E+01  1.655E+00 
1.949E+01   1.570E+01  1.644E+00 
1.974E+01   1.584E+01  1.632E+00 
2.000E+01   1.598E+01  1.621E+00 
2.026E+01   1.613E+01  1.610E+00 
2.052E+01   1.628E+01  1.598E+00 
2.079E+01   1.642E+01  1.587E+00 
2.106E+01   1.657E+01  1.576E+00 
2.133E+01   1.672E+01  1.565E+00 
2.161E+01   1.688E+01  1.553E+00 
2.189E+01   1.703E+01  1.542E+00 
2.218E+01   1.719E+01  1.531E+00 
2.247E+01   1.734E+01  1.520E+00 
2.276E+01   1.750E+01  1.509E+00 
2.305E+01   1.766E+01  1.498E+00 
2.335E+01   1.783E+01  1.487E+00 
2.366E+01   1.799E+01  1.477E+00 
2.396E+01   1.816E+01  1.466E+00 
2.428E+01   1.832E+01  1.455E+00 
2.459E+01   1.849E+01  1.444E+00 
2.491E+01   1.867E+01  1.434E+00 
2.523E+01   1.884E+01  1.423E+00 
2.556E+01   1.901E+01  1.412E+00 
2.589E+01   1.919E+01  1.402E+00 
2.623E+01   1.937E+01  1.391E+00 
2.657E+01   1.955E+01  1.381E+00 
2.692E+01   1.973E+01  1.371E+00 
2.727E+01   1.992E+01  1.360E+00 
2.762E+01   2.011E+01  1.350E+00 
2.798E+01   2.029E+01  1.340E+00 
2.834E+01   2.049E+01  1.330E+00 
2.871E+01   2.068E+01  1.320E+00 
2.909E+01   2.087E+01  1.310E+00 
2.946E+01   2.107E+01  1.299E+00 
2.985E+01   2.127E+01  1.290E+00 
3.023E+01   2.147E+01  1.280E+00 
3.063E+01   2.167E+01  1.270E+00 
3.103E+01   2.188E+01  1.260E+00 
3.143E+01   2.209E+01  1.250E+00 
3.184E+01   2.230E+01  1.240E+00 
3.225E+01   2.251E+01  1.231E+00 
3.267E+01   2.272E+01  1.221E+00 
3.309E+01   2.294E+01  1.212E+00 
3.352E+01   2.316E+01  1.202E+00 
3.396E+01   2.338E+01  1.193E+00 
3.440E+01   2.360E+01  1.183E+00 
3.485E+01   2.383E+01  1.174E+00 
3.530E+01   2.406E+01  1.165E+00 
3.576E+01   2.429E+01  1.155E+00 
3.623E+01   2.452E+01  1.146E+00 
3.670E+01   2.475E+01  1.137E+00 
3.717E+01   2.499E+01  1.128E+00 
3.766E+01   2.523E+01  1.119E+00 
3.815E+01   2.547E+01  1.110E+00 
3.864E+01   2.572E+01  1.101E+00 
3.914E+01   2.596E+01  1.092E+00 
3.965E+01   2.621E+01  1.083E+00 
4.017E+01   2.647E+01  1.074E+00 
4.069E+01   2.672E+01  1.066E+00 
4.122E+01   2.698E+01  1.057E+00 
4.175E+01   2.724E+01  1.048E+00 
4.230E+01   2.750E+01  1.040E+00 
4.285E+01   2.776E+01  1.031E+00 
4.340E+01   2.803E+01  1.023E+00 
4.397E+01   2.830E+01  1.014E+00 
4.454E+01   2.857E+01  1.006E+00 
4.512E+01   2.885E+01  9.976E-01 
4.570E+01   2.913E+01  9.894E-01 
4.630E+01   2.941E+01  9.812E-01 
4.690E+01   2.969E+01  9.730E-01 
4.751E+01   2.998E+01  9.649E-01 
4.813E+01   3.027E+01  9.568E-01 
4.875E+01   3.056E+01  9.488E-01 
4.939E+01   3.085E+01  9.409E-01 
5.003E+01   3.115E+01  9.330E-01 
5.068E+01   3.145E+01  9.251E-01 
5.134E+01   3.175E+01  9.173E-01 
5.200E+01   3.205E+01  9.096E-01 
5.268E+01   3.236E+01  9.019E-01 
5.336E+01   3.267E+01  8.942E-01 
5.406E+01   3.299E+01  8.866E-01 
5.476E+01   3.330E+01  8.791E-01 
5.547E+01   3.362E+01  8.716E-01 
5.619E+01   3.394E+01  8.641E-01 
5.692E+01   3.427E+01  8.567E-01 
5.766E+01   3.459E+01  8.494E-01 
5.841E+01   3.492E+01  8.421E-01 
5.917E+01   3.526E+01  8.348E-01 
5.994E+01   3.559E+01  8.276E-01 
6.072E+01   3.593E+01  8.205E-01 
6.151E+01   3.627E+01  8.134E-01 
6.231E+01   3.662E+01  8.063E-01 
6.312E+01   3.696E+01  7.993E-01 
6.394E+01   3.731E+01  7.924E-01 
6.477E+01   3.767E+01  7.855E-01 
6.561E+01   3.802E+01  7.786E-01 
6.646E+01   3.838E+01  7.718E-01 
6.733E+01   3.874E+01  7.651E-01 
6.820E+01   3.910E+01  7.584E-01 
6.909E+01   3.947E+01  7.517E-01 
6.999E+01   3.984E+01  7.451E-01 
7.090E+01   4.021E+01  7.385E-01 
7.182E+01   4.059E+01  7.320E-01 
7.275E+01   4.096E+01  7.255E-01 
7.370E+01   4.134E+01  7.191E-01 
7.465E+01   4.173E+01  7.127E-01 
7.562E+01   4.211E+01  7.064E-01 
7.661E+01   4.250E+01  7.001E-01 
7.760E+01   4.289E+01  6.939E-01 
7.861E+01   4.328E+01  6.877E-01 
7.963E+01   4.368E+01  6.816E-01 
8.067E+01   4.408E+01  6.755E-01 
8.172E+01   4.448E+01  6.694E-01 
8.278E+01   4.489E+01  6.634E-01 
8.385E+01   4.529E+01  6.574E-01 
8.494E+01   4.570E+01  6.515E-01 
8.605E+01   4.611E+01  6.456E-01 
8.717E+01   4.653E+01  6.398E-01 
8.830E+01   4.694E+01  6.340E-01 
8.945E+01   4.736E+01  6.283E-01 
9.061E+01   4.778E+01  6.226E-01 
9.179E+01   4.820E+01  6.169E-01 
9.298E+01   4.863E+01  6.113E-01 
9.419E+01   4.906E+01  6.058E-01 
9.541E+01   4.949E+01  6.002E-01 
9.665E+01   4.992E+01  5.948E-01 
9.791E+01   5.035E+01  5.893E-01 
9.918E+01   5.079E+01  5.839E-01 
1.005E+02   5.123E+01  5.786E-01 
1.018E+02   5.167E+01  5.556E-01 
1.031E+02   5.211E+01  5.506E-01 
1.044E+02   5.255E+01  5.456E-01 
1.058E+02   5.300E+01  5.406E-01 
1.072E+02   5.344E+01  5.357E-01 
1.086E+02   5.389E+01  5.308E-01 
1.100E+02   5.434E+01  5.259E-01 
1.114E+02   5.479E+01  5.211E-01 
1.129E+02   5.525E+01  5.163E-01 
1.143E+02   5.570E+01  5.116E-01 
1.158E+02   5.616E+01  5.069E-01 
1.173E+02   5.661E+01  5.022E-01 
1.188E+02   5.707E+01  4.976E-01 
1.204E+02   5.753E+01  4.930E-01 
1.219E+02   5.799E+01  4.884E-01 
1.235E+02   5.845E+01  4.839E-01 
1.251E+02   5.891E+01  4.794E-01 
1.268E+02   5.937E+01  4.749E-01 
1.284E+02   5.984E+01  4.705E-01 
1.301E+02   6.030E+01  4.661E-01 
1.318E+02   6.077E+01  4.618E-01 
1.335E+02   6.123E+01  4.574E-01 
1.352E+02   6.169E+01  4.532E-01 
1.370E+02   6.216E+01  4.489E-01 
1.388E+02   6.262E+01  4.447E-01 
1.406E+02   6.309E+01  4.405E-01 
1.424E+02   6.355E+01  4.364E-01 
1.442E+02   6.402E+01  4.323E-01 
1.461E+02   6.448E+01  4.282E-01 
1.480E+02   6.495E+01  4.241E-01 
1.499E+02   6.541E+01  4.201E-01 
1.519E+02   6.587E+01  4.162E-01 
1.539E+02   6.634E+01  4.122E-01 
1.559E+02   6.680E+01  4.083E-01 
1.579E+02   6.726E+01  4.044E-01 
1.599E+02   6.772E+01  4.006E-01 
1.620E+02   6.817E+01  3.968E-01 
1.641E+02   6.863E+01  3.930E-01 
1.662E+02   6.908E+01  3.892E-01 
1.684E+02   6.954E+01  3.855E-01 
1.706E+02   6.999E+01  3.818E-01 
1.728E+02   7.044E+01  3.782E-01 
1.751E+02   7.089E+01  3.745E-01 
1.773E+02   7.133E+01  3.709E-01 
1.796E+02   7.177E+01  3.674E-01 
1.820E+02   7.222E+01  3.638E-01 
1.843E+02   7.265E+01  3.603E-01 
1.867E+02   7.309E+01  3.569E-01 
1.892E+02   7.352E+01  3.534E-01 
1.916E+02   7.395E+01  3.500E-01 
1.941E+02   7.438E+01  3.466E-01 
1.966E+02   7.480E+01  3.433E-01 
1.992E+02   7.522E+01  3.399E-01 
2.018E+02   7.564E+01  3.367E-01 
2.044E+02   7.605E+01  3.334E-01 
2.071E+02   7.646E+01  3.301E-01 
2.097E+02   7.687E+01  3.269E-01 
2.125E+02   7.727E+01  3.237E-01 
2.152E+02   7.767E+01  3.206E-01 
2.180E+02   7.806E+01  3.175E-01 
2.209E+02   7.845E+01  3.144E-01 
2.237E+02   7.883E+01  3.113E-01 
2.266E+02   7.921E+01  3.082E-01 
2.296E+02   7.959E+01  3.052E-01 
2.326E+02   7.996E+01  3.022E-01 
2.356E+02   8.032E+01  2.993E-01 
2.387E+02   8.068E+01  2.963E-01 
2.418E+02   8.104E+01  2.934E-01 
2.449E+02   8.139E+01  2.905E-01 
2.481E+02   8.173E+01  2.877E-01 
2.513E+02   8.207E+01  2.848E-01 
2.546E+02   8.240E+01  2.820E-01 
2.579E+02   8.273E+01  2.792E-01 
2.612E+02   8.305E+01  2.765E-01 
2.646E+02   8.336E+01  2.737E-01 
2.681E+02   8.367E+01  2.710E-01 
2.716E+02   8.397E+01  2.683E-01 
2.751E+02   8.426E+01  2.657E-01 
2.787E+02   8.455E+01  2.630E-01 
2.823E+02   8.483E+01  2.604E-01 
2.859E+02   8.511E+01  2.578E-01 
2.897E+02   8.537E+01  2.553E-01 
2.934E+02   8.563E+01  2.527E-01 
2.972E+02   8.589E+01  2.502E-01 
3.011E+02   8.613E+01  2.477E-01 
3.050E+02   8.637E+01  2.452E-01 
3.090E+02   8.660E+01  2.428E-01 
3.130E+02   8.683E+01  2.403E-01 
3.171E+02   8.704E+01  2.379E-01 
3.212E+02   8.725E+01  2.356E-01 
3.254E+02   8.745E+01  2.332E-01 
3.296E+02   8.764E+01  2.309E-01 
3.339E+02   8.783E+01  2.285E-01 
3.382E+02   8.801E+01  2.262E-01 
3.426E+02   8.818E+01  2.240E-01 
3.471E+02   8.834E+01  2.217E-01 
3.516E+02   8.849E+01  2.195E-01 
3.561E+02   8.864E+01  2.173E-01 
3.608E+02   8.877E+01  2.151E-01 
3.655E+02   8.890E+01  2.129E-01 
3.702E+02   8.902E+01  2.107E-01 
3.750E+02   8.914E+01  2.086E-01 
3.799E+02   8.924E+01  2.065E-01 
3.848E+02   8.934E+01  2.044E-01 
3.898E+02   8.942E+01  2.023E-01 
3.949E+02   8.950E+01  2.003E-01 
4.000E+02   8.957E+01  1.982E-01 
4.052E+02   8.964E+01  1.962E-01 
4.105E+02   8.969E+01  1.942E-01 
4.158E+02   8.973E+01  1.923E-01 
4.212E+02   8.977E+01  1.903E-01 
4.267E+02   8.980E+01  1.884E-01 
4.323E+02   8.982E+01  1.864E-01 
4.379E+02   8.983E+01  1.845E-01 
4.436E+02   8.984E+01  1.827E-01 
4.493E+02   8.983E+01  1.808E-01 
4.552E+02   8.982E+01  1.790E-01 
4.611E+02   8.980E+01  1.771E-01 
4.671E+02   8.977E+01  1.753E-01 
4.731E+02   8.973E+01  1.735E-01 
4.793E+02   8.969E+01  1.717E-01 
4.855E+02   8.964E+01  1.700E-01 
4.918E+02   8.957E+01  1.682E-01 
4.982E+02   8.950E+01  1.665E-01 
5.047E+02   8.943E+01  1.648E-01 
5.113E+02   8.934E+01  1.631E-01 
5.179E+02   8.925E+01  1.614E-01 
5.246E+02   8.915E+01  1.598E-01 
5.315E+02   8.904E+01  1.581E-01 
5.384E+02   8.893E+01  1.565E-01 
5.454E+02   8.880E+01  1.549E-01 
5.524E+02   8.867E+01  1.533E-01 
5.596E+02   8.853E+01  1.517E-01 
5.669E+02   8.839E+01  1.501E-01 
5.743E+02   8.824E+01  1.486E-01 
5.817E+02   8.808E+01  1.470E-01 
5.893E+02   8.791E+01  1.455E-01 
5.969E+02   8.774E+01  1.440E-01 
6.047E+02   8.755E+01  1.425E-01 
6.126E+02   8.737E+01  1.410E-01 
6.205E+02   8.717E+01  1.396E-01 
6.286E+02   8.697E+01  1.381E-01 
6.368E+02   8.677E+01  1.367E-01 
6.450E+02   8.655E+01  1.353E-01 
6.534E+02   8.633E+01  1.339E-01 
6.619E+02   8.611E+01  1.325E-01 
6.705E+02   8.588E+01  1.311E-01 
6.792E+02   8.564E+01  1.297E-01 
6.881E+02   8.540E+01  1.284E-01 
6.970E+02   8.515E+01  1.270E-01 
7.061E+02   8.489E+01  1.257E-01 
7.152E+02   8.463E+01  1.244E-01 
7.245E+02   8.437E+01  1.231E-01 
7.339E+02   8.410E+01  1.218E-01 
7.435E+02   8.382E+01  1.205E-01 
7.531E+02   8.354E+01  1.193E-01 
7.629E+02   8.325E+01  1.180E-01 
7.728E+02   8.296E+01  1.168E-01 
7.829E+02   8.267E+01  1.156E-01 
7.931E+02   8.237E+01  1.143E-01 
8.034E+02   8.206E+01  1.131E-01 
8.138E+02   8.175E+01  1.120E-01 
8.244E+02   8.144E+01  1.108E-01 
8.351E+02   8.112E+01  1.096E-01 
8.460E+02   8.080E+01  1.085E-01 
8.570E+02   8.048E+01  1.073E-01 
8.681E+02   8.015E+01  1.062E-01 
8.794E+02   7.982E+01  1.051E-01 
8.908E+02   7.948E+01  1.040E-01 
9.024E+02   7.914E+01  1.029E-01 
9.141E+02   7.880E+01  1.018E-01 
9.260E+02   7.845E+01  1.007E-01 
9.380E+02   7.810E+01  9.965E-02 
9.502E+02   7.775E+01  9.860E-02 
9.626E+02   7.739E+01  9.756E-02 
9.751E+02   7.703E+01  9.652E-02 
9.877E+02   7.667E+01  9.550E-02 
1.001E+03   7.631E+01  9.449E-02 
1.014E+03   7.594E+01  9.349E-02 
1.027E+03   7.558E+01  9.250E-02 
1.040E+03   7.521E+01  9.152E-02 
1.054E+03   7.483E+01  9.055E-02 
1.067E+03   7.446E+01  8.959E-02 
1.081E+03   7.408E+01  8.864E-02 
1.095E+03   7.370E+01  8.770E-02 
1.109E+03   7.332E+01  8.677E-02 
1.124E+03   7.294E+01  8.584E-02 
1.138E+03   7.256E+01  8.493E-02 
1.153E+03   7.217E+01  8.403E-02 
1.168E+03   7.178E+01  8.313E-02 
1.183E+03   7.139E+01  8.225E-02 
1.199E+03   7.101E+01  8.137E-02 
1.214E+03   7.061E+01  8.050E-02 
1.230E+03   7.022E+01  7.965E-02 
1.246E+03   6.983E+01  7.880E-02 
1.262E+03   6.944E+01  7.796E-02 
1.279E+03   6.904E+01  7.712E-02 
1.295E+03   6.865E+01  7.630E-02 
1.312E+03   6.825E+01  7.548E-02 
1.329E+03   6.785E+01  7.468E-02 
1.347E+03   6.746E+01  7.388E-02 
1.364E+03   6.706E+01  7.309E-02 
1.382E+03   6.666E+01  7.231E-02 
1.400E+03   6.626E+01  7.153E-02 
1.418E+03   6.587E+01  7.077E-02 
1.436E+03   6.547E+01  7.001E-02 
1.455E+03   6.507E+01  6.926E-02 
1.474E+03   6.467E+01  6.851E-02 
1.493E+03   6.427E+01  6.778E-02 
1.513E+03   6.387E+01  6.705E-02 
1.532E+03   6.348E+01  6.633E-02 
1.552E+03   6.308E+01  6.562E-02 
1.572E+03   6.268E+01  6.491E-02 
1.593E+03   6.228E+01  6.421E-02 
1.613E+03   6.188E+01  6.352E-02 
1.634E+03   6.149E+01  6.284E-02 
1.656E+03   6.109E+01  6.216E-02 
1.677E+03   6.070E+01  6.149E-02 
1.699E+03   6.030E+01  6.083E-02 
1.721E+03   5.991E+01  6.018E-02 
1.743E+03   5.951E+01  5.953E-02 
1.766E+03   5.912E+01  5.888E-02 
1.789E+03   5.873E+01  5.825E-02 
1.812E+03   5.834E+01  5.762E-02 
1.836E+03   5.795E+01  5.700E-02 
1.860E+03   5.756E+01  5.638E-02 
