Ion = Helium      . Mass = 4.0026
Tgt = Br (Solid). Density = 3.199 g/cm3
Stopping Units =  eV/(1E15 atoms/cm2)
Energy(keV)  S(Elec)    S(Nuc)
1.000E+00   3.273E+00  2.690E+00 
1.013E+00   3.295E+00  2.695E+00 
1.026E+00   3.316E+00  2.699E+00 
1.039E+00   3.337E+00  2.704E+00 
1.053E+00   3.359E+00  2.709E+00 
1.067E+00   3.381E+00  2.713E+00 
1.081E+00   3.403E+00  2.718E+00 
1.095E+00   3.425E+00  2.723E+00 
1.109E+00   3.447E+00  2.727E+00 
1.123E+00   3.469E+00  2.731E+00 
1.138E+00   3.492E+00  2.736E+00 
1.153E+00   3.514E+00  2.740E+00 
1.168E+00   3.537E+00  2.744E+00 
1.183E+00   3.560E+00  2.749E+00 
1.198E+00   3.583E+00  2.753E+00 
1.214E+00   3.606E+00  2.757E+00 
1.229E+00   3.630E+00  2.761E+00 
1.245E+00   3.653E+00  2.765E+00 
1.262E+00   3.677E+00  2.769E+00 
1.278E+00   3.701E+00  2.773E+00 
1.295E+00   3.725E+00  2.776E+00 
1.311E+00   3.749E+00  2.780E+00 
1.329E+00   3.773E+00  2.784E+00 
1.346E+00   3.797E+00  2.788E+00 
1.363E+00   3.822E+00  2.791E+00 
1.381E+00   3.847E+00  2.795E+00 
1.399E+00   3.872E+00  2.798E+00 
1.417E+00   3.897E+00  2.801E+00 
1.436E+00   3.922E+00  2.805E+00 
1.454E+00   3.947E+00  2.808E+00 
1.473E+00   3.973E+00  2.811E+00 
1.492E+00   3.999E+00  2.814E+00 
1.512E+00   4.025E+00  2.817E+00 
1.531E+00   4.051E+00  2.820E+00 
1.551E+00   4.077E+00  2.823E+00 
1.571E+00   4.103E+00  2.826E+00 
1.592E+00   4.130E+00  2.829E+00 
1.612E+00   4.157E+00  2.832E+00 
1.633E+00   4.184E+00  2.834E+00 
1.655E+00   4.211E+00  2.837E+00 
1.676E+00   4.238E+00  2.840E+00 
1.698E+00   4.265E+00  2.842E+00 
1.720E+00   4.293E+00  2.844E+00 
1.742E+00   4.321E+00  2.847E+00 
1.765E+00   4.349E+00  2.849E+00 
1.788E+00   4.377E+00  2.851E+00 
1.811E+00   4.405E+00  2.853E+00 
1.835E+00   4.434E+00  2.855E+00 
1.859E+00   4.463E+00  2.857E+00 
1.883E+00   4.492E+00  2.859E+00 
1.907E+00   4.521E+00  2.861E+00 
1.932E+00   4.550E+00  2.863E+00 
1.957E+00   4.579E+00  2.865E+00 
1.983E+00   4.609E+00  2.866E+00 
2.008E+00   4.639E+00  2.868E+00 
2.034E+00   4.669E+00  2.869E+00 
2.061E+00   4.699E+00  2.871E+00 
2.088E+00   4.730E+00  2.872E+00 
2.115E+00   4.760E+00  2.873E+00 
2.142E+00   4.791E+00  2.874E+00 
2.170E+00   4.822E+00  2.875E+00 
2.198E+00   4.853E+00  2.876E+00 
2.227E+00   4.885E+00  2.877E+00 
2.256E+00   4.917E+00  2.878E+00 
2.285E+00   4.948E+00  2.879E+00 
2.315E+00   4.980E+00  2.880E+00 
2.345E+00   5.013E+00  2.880E+00 
2.375E+00   5.045E+00  2.881E+00 
2.406E+00   5.078E+00  2.881E+00 
2.438E+00   5.111E+00  2.882E+00 
2.469E+00   5.144E+00  2.882E+00 
2.501E+00   5.177E+00  2.882E+00 
2.534E+00   5.211E+00  2.882E+00 
2.567E+00   5.244E+00  2.882E+00 
2.600E+00   5.278E+00  2.882E+00 
2.634E+00   5.313E+00  2.882E+00 
2.668E+00   5.347E+00  2.882E+00 
2.703E+00   5.382E+00  2.882E+00 
2.738E+00   5.417E+00  2.882E+00 
2.773E+00   5.452E+00  2.881E+00 
2.810E+00   5.487E+00  2.881E+00 
2.846E+00   5.522E+00  2.880E+00 
2.883E+00   5.558E+00  2.879E+00 
2.921E+00   5.594E+00  2.879E+00 
2.958E+00   5.631E+00  2.878E+00 
2.997E+00   5.667E+00  2.877E+00 
3.036E+00   5.704E+00  2.876E+00 
3.075E+00   5.741E+00  2.875E+00 
3.115E+00   5.778E+00  2.874E+00 
3.156E+00   5.815E+00  2.872E+00 
3.197E+00   5.853E+00  2.871E+00 
3.238E+00   5.891E+00  2.870E+00 
3.280E+00   5.929E+00  2.868E+00 
3.323E+00   5.967E+00  2.867E+00 
3.366E+00   6.006E+00  2.865E+00 
3.410E+00   6.045E+00  2.863E+00 
3.454E+00   6.084E+00  2.861E+00 
3.499E+00   6.124E+00  2.859E+00 
3.545E+00   6.163E+00  2.857E+00 
3.591E+00   6.203E+00  2.855E+00 
3.637E+00   6.243E+00  2.853E+00 
3.685E+00   6.284E+00  2.851E+00 
3.733E+00   6.324E+00  2.848E+00 
3.781E+00   6.365E+00  2.846E+00 
3.830E+00   6.407E+00  2.843E+00 
3.880E+00   6.448E+00  2.841E+00 
3.930E+00   6.490E+00  2.838E+00 
3.982E+00   6.532E+00  2.835E+00 
4.033E+00   6.574E+00  2.832E+00 
4.086E+00   6.617E+00  2.829E+00 
4.139E+00   6.660E+00  2.826E+00 
4.193E+00   6.703E+00  2.823E+00 
4.247E+00   6.746E+00  2.820E+00 
4.302E+00   6.790E+00  2.817E+00 
4.358E+00   6.834E+00  2.813E+00 
4.415E+00   6.878E+00  2.810E+00 
4.472E+00   6.923E+00  2.806E+00 
4.530E+00   6.968E+00  2.803E+00 
4.589E+00   7.013E+00  2.799E+00 
4.649E+00   7.058E+00  2.795E+00 
4.709E+00   7.104E+00  2.791E+00 
4.770E+00   7.150E+00  2.787E+00 
4.832E+00   7.196E+00  2.783E+00 
4.895E+00   7.243E+00  2.779E+00 
4.959E+00   7.290E+00  2.775E+00 
5.023E+00   7.337E+00  2.771E+00 
5.089E+00   7.385E+00  2.766E+00 
5.155E+00   7.432E+00  2.762E+00 
5.222E+00   7.481E+00  2.757E+00 
5.290E+00   7.529E+00  2.753E+00 
5.358E+00   7.578E+00  2.748E+00 
5.428E+00   7.627E+00  2.743E+00 
5.499E+00   7.676E+00  2.738E+00 
5.570E+00   7.726E+00  2.733E+00 
5.642E+00   7.776E+00  2.728E+00 
5.716E+00   7.826E+00  2.723E+00 
5.790E+00   7.877E+00  2.718E+00 
5.865E+00   7.928E+00  2.713E+00 
5.942E+00   7.980E+00  2.707E+00 
6.019E+00   8.031E+00  2.702E+00 
6.097E+00   8.083E+00  2.696E+00 
6.176E+00   8.136E+00  2.691E+00 
6.256E+00   8.188E+00  2.685E+00 
6.338E+00   8.241E+00  2.679E+00 
6.420E+00   8.295E+00  2.673E+00 
6.504E+00   8.348E+00  2.667E+00 
6.588E+00   8.403E+00  2.661E+00 
6.674E+00   8.457E+00  2.655E+00 
6.760E+00   8.512E+00  2.649E+00 
6.848E+00   8.567E+00  2.643E+00 
6.937E+00   8.622E+00  2.637E+00 
7.027E+00   8.678E+00  2.630E+00 
7.119E+00   8.735E+00  2.624E+00 
7.211E+00   8.791E+00  2.617E+00 
7.305E+00   8.848E+00  2.611E+00 
7.400E+00   8.905E+00  2.604E+00 
7.496E+00   8.963E+00  2.597E+00 
7.594E+00   9.021E+00  2.591E+00 
7.692E+00   9.080E+00  2.584E+00 
7.792E+00   9.138E+00  2.577E+00 
7.894E+00   9.198E+00  2.570E+00 
7.996E+00   9.257E+00  2.563E+00 
8.100E+00   9.317E+00  2.556E+00 
8.205E+00   9.378E+00  2.548E+00 
8.312E+00   9.439E+00  2.541E+00 
8.420E+00   9.500E+00  2.534E+00 
8.529E+00   9.562E+00  2.526E+00 
8.640E+00   9.624E+00  2.519E+00 
8.753E+00   9.687E+00  2.511E+00 
8.866E+00   9.751E+00  2.504E+00 
8.982E+00   9.814E+00  2.496E+00 
9.098E+00   9.878E+00  2.489E+00 
9.217E+00   9.943E+00  2.481E+00 
9.336E+00   1.001E+01  2.473E+00 
9.458E+00   1.007E+01  2.465E+00 
9.581E+00   1.014E+01  2.457E+00 
9.705E+00   1.021E+01  2.449E+00 
9.831E+00   1.027E+01  2.441E+00 
9.959E+00   1.034E+01  2.433E+00 
1.009E+01   1.041E+01  2.425E+00 
1.022E+01   1.048E+01  2.417E+00 
1.035E+01   1.055E+01  2.408E+00 
1.049E+01   1.062E+01  2.400E+00 
1.062E+01   1.069E+01  2.392E+00 
1.076E+01   1.076E+01  2.383E+00 
1.090E+01   1.083E+01  2.375E+00 
1.104E+01   1.090E+01  2.366E+00 
1.119E+01   1.097E+01  2.358E+00 
1.133E+01   1.105E+01  2.349E+00 
1.148E+01   1.112E+01  2.340E+00 
1.163E+01   1.119E+01  2.331E+00 
1.178E+01   1.127E+01  2.323E+00 
1.193E+01   1.134E+01  2.314E+00 
1.209E+01   1.142E+01  2.305E+00 
1.224E+01   1.150E+01  2.296E+00 
1.240E+01   1.157E+01  2.287E+00 
1.256E+01   1.165E+01  2.278E+00 
1.273E+01   1.173E+01  2.269E+00 
1.289E+01   1.181E+01  2.260E+00 
1.306E+01   1.189E+01  2.251E+00 
1.323E+01   1.197E+01  2.242E+00 
1.340E+01   1.205E+01  2.233E+00 
1.358E+01   1.213E+01  2.223E+00 
1.375E+01   1.221E+01  2.214E+00 
1.393E+01   1.229E+01  2.205E+00 
1.411E+01   1.237E+01  2.196E+00 
1.430E+01   1.246E+01  2.186E+00 
1.448E+01   1.254E+01  2.177E+00 
1.467E+01   1.263E+01  2.167E+00 
1.486E+01   1.271E+01  2.158E+00 
1.505E+01   1.280E+01  2.149E+00 
1.525E+01   1.289E+01  2.139E+00 
1.545E+01   1.298E+01  2.130E+00 
1.565E+01   1.306E+01  2.120E+00 
1.585E+01   1.315E+01  2.110E+00 
1.606E+01   1.324E+01  2.101E+00 
1.627E+01   1.334E+01  2.091E+00 
1.648E+01   1.343E+01  2.082E+00 
1.669E+01   1.352E+01  2.072E+00 
1.691E+01   1.361E+01  2.062E+00 
1.713E+01   1.371E+01  2.052E+00 
1.735E+01   1.380E+01  2.043E+00 
1.758E+01   1.390E+01  2.033E+00 
1.781E+01   1.399E+01  2.023E+00 
1.804E+01   1.409E+01  2.013E+00 
1.827E+01   1.419E+01  2.004E+00 
1.851E+01   1.429E+01  1.994E+00 
1.875E+01   1.439E+01  1.984E+00 
1.899E+01   1.449E+01  1.974E+00 
1.924E+01   1.459E+01  1.964E+00 
1.949E+01   1.469E+01  1.954E+00 
1.974E+01   1.479E+01  1.945E+00 
2.000E+01   1.490E+01  1.935E+00 
2.026E+01   1.500E+01  1.925E+00 
2.052E+01   1.511E+01  1.915E+00 
2.079E+01   1.521E+01  1.905E+00 
2.106E+01   1.532E+01  1.895E+00 
2.133E+01   1.543E+01  1.885E+00 
2.161E+01   1.554E+01  1.875E+00 
2.189E+01   1.565E+01  1.865E+00 
2.218E+01   1.576E+01  1.855E+00 
2.247E+01   1.587E+01  1.845E+00 
2.276E+01   1.599E+01  1.835E+00 
2.305E+01   1.610E+01  1.825E+00 
2.335E+01   1.622E+01  1.815E+00 
2.366E+01   1.633E+01  1.806E+00 
2.396E+01   1.645E+01  1.796E+00 
2.428E+01   1.657E+01  1.786E+00 
2.459E+01   1.669E+01  1.776E+00 
2.491E+01   1.681E+01  1.766E+00 
2.523E+01   1.693E+01  1.756E+00 
2.556E+01   1.705E+01  1.746E+00 
2.589E+01   1.718E+01  1.736E+00 
2.623E+01   1.730E+01  1.726E+00 
2.657E+01   1.743E+01  1.716E+00 
2.692E+01   1.756E+01  1.706E+00 
2.727E+01   1.768E+01  1.696E+00 
2.762E+01   1.781E+01  1.686E+00 
2.798E+01   1.795E+01  1.677E+00 
2.834E+01   1.808E+01  1.667E+00 
2.871E+01   1.821E+01  1.657E+00 
2.909E+01   1.835E+01  1.647E+00 
2.946E+01   1.848E+01  1.637E+00 
2.985E+01   1.862E+01  1.627E+00 
3.023E+01   1.876E+01  1.618E+00 
3.063E+01   1.890E+01  1.608E+00 
3.103E+01   1.904E+01  1.598E+00 
3.143E+01   1.918E+01  1.588E+00 
3.184E+01   1.932E+01  1.578E+00 
3.225E+01   1.947E+01  1.569E+00 
3.267E+01   1.962E+01  1.559E+00 
3.309E+01   1.976E+01  1.549E+00 
3.352E+01   1.991E+01  1.540E+00 
3.396E+01   2.006E+01  1.530E+00 
3.440E+01   2.022E+01  1.520E+00 
3.485E+01   2.037E+01  1.511E+00 
3.530E+01   2.052E+01  1.501E+00 
3.576E+01   2.068E+01  1.492E+00 
3.623E+01   2.084E+01  1.482E+00 
3.670E+01   2.100E+01  1.473E+00 
3.717E+01   2.116E+01  1.463E+00 
3.766E+01   2.132E+01  1.454E+00 
3.815E+01   2.149E+01  1.444E+00 
3.864E+01   2.165E+01  1.435E+00 
3.914E+01   2.182E+01  1.425E+00 
3.965E+01   2.199E+01  1.416E+00 
4.017E+01   2.216E+01  1.407E+00 
4.069E+01   2.234E+01  1.397E+00 
4.122E+01   2.251E+01  1.388E+00 
4.175E+01   2.269E+01  1.379E+00 
4.230E+01   2.287E+01  1.369E+00 
4.285E+01   2.305E+01  1.360E+00 
4.340E+01   2.323E+01  1.351E+00 
4.397E+01   2.341E+01  1.342E+00 
4.454E+01   2.360E+01  1.333E+00 
4.512E+01   2.378E+01  1.324E+00 
4.570E+01   2.397E+01  1.314E+00 
4.630E+01   2.416E+01  1.305E+00 
4.690E+01   2.436E+01  1.296E+00 
4.751E+01   2.455E+01  1.287E+00 
4.813E+01   2.475E+01  1.279E+00 
4.875E+01   2.495E+01  1.270E+00 
4.939E+01   2.515E+01  1.261E+00 
5.003E+01   2.535E+01  1.252E+00 
5.068E+01   2.556E+01  1.243E+00 
5.134E+01   2.577E+01  1.234E+00 
5.200E+01   2.598E+01  1.226E+00 
5.268E+01   2.619E+01  1.217E+00 
5.336E+01   2.640E+01  1.208E+00 
5.406E+01   2.662E+01  1.199E+00 
5.476E+01   2.684E+01  1.191E+00 
5.547E+01   2.706E+01  1.182E+00 
5.619E+01   2.728E+01  1.174E+00 
5.692E+01   2.751E+01  1.165E+00 
5.766E+01   2.773E+01  1.157E+00 
5.841E+01   2.797E+01  1.148E+00 
5.917E+01   2.820E+01  1.140E+00 
5.994E+01   2.843E+01  1.132E+00 
6.072E+01   2.867E+01  1.123E+00 
6.151E+01   2.891E+01  1.115E+00 
6.231E+01   2.915E+01  1.107E+00 
6.312E+01   2.940E+01  1.098E+00 
6.394E+01   2.965E+01  1.090E+00 
6.477E+01   2.990E+01  1.082E+00 
6.561E+01   3.015E+01  1.074E+00 
6.646E+01   3.040E+01  1.066E+00 
6.733E+01   3.066E+01  1.058E+00 
6.820E+01   3.092E+01  1.050E+00 
6.909E+01   3.119E+01  1.042E+00 
6.999E+01   3.145E+01  1.034E+00 
7.090E+01   3.172E+01  1.026E+00 
7.182E+01   3.200E+01  1.018E+00 
7.275E+01   3.227E+01  1.011E+00 
7.370E+01   3.255E+01  1.003E+00 
7.465E+01   3.283E+01  9.951E-01 
7.562E+01   3.311E+01  9.875E-01 
7.661E+01   3.340E+01  9.798E-01 
7.760E+01   3.369E+01  9.722E-01 
7.861E+01   3.398E+01  9.647E-01 
7.963E+01   3.428E+01  9.571E-01 
8.067E+01   3.458E+01  9.497E-01 
8.172E+01   3.488E+01  9.422E-01 
8.278E+01   3.518E+01  9.348E-01 
8.385E+01   3.549E+01  9.275E-01 
8.494E+01   3.580E+01  9.202E-01 
8.605E+01   3.612E+01  9.129E-01 
8.717E+01   3.643E+01  9.057E-01 
8.830E+01   3.675E+01  8.985E-01 
8.945E+01   3.708E+01  8.913E-01 
9.061E+01   3.741E+01  8.842E-01 
9.179E+01   3.774E+01  8.771E-01 
9.298E+01   3.807E+01  8.701E-01 
9.419E+01   3.841E+01  8.631E-01 
9.541E+01   3.875E+01  8.561E-01 
9.665E+01   3.909E+01  8.492E-01 
9.791E+01   3.944E+01  8.423E-01 
9.918E+01   3.979E+01  8.355E-01 
1.005E+02   4.015E+01  8.287E-01 
1.018E+02   4.050E+01  8.220E-01 
1.031E+02   4.087E+01  8.153E-01 
1.044E+02   4.123E+01  8.086E-01 
1.058E+02   4.160E+01  8.020E-01 
1.072E+02   4.197E+01  7.954E-01 
1.086E+02   4.235E+01  7.888E-01 
1.100E+02   4.272E+01  7.823E-01 
1.114E+02   4.311E+01  7.759E-01 
1.129E+02   4.349E+01  7.694E-01 
1.143E+02   4.388E+01  7.630E-01 
1.158E+02   4.427E+01  7.567E-01 
1.173E+02   4.467E+01  7.504E-01 
1.188E+02   4.507E+01  7.441E-01 
1.204E+02   4.548E+01  7.379E-01 
1.219E+02   4.588E+01  7.317E-01 
1.235E+02   4.629E+01  7.256E-01 
1.251E+02   4.671E+01  7.194E-01 
1.268E+02   4.713E+01  7.134E-01 
1.284E+02   4.755E+01  7.074E-01 
1.301E+02   4.797E+01  7.014E-01 
1.318E+02   4.840E+01  6.954E-01 
1.335E+02   4.883E+01  6.895E-01 
1.352E+02   4.927E+01  6.836E-01 
1.370E+02   4.971E+01  6.778E-01 
1.388E+02   5.015E+01  6.720E-01 
1.406E+02   5.059E+01  6.663E-01 
1.424E+02   5.104E+01  6.606E-01 
1.442E+02   5.150E+01  6.549E-01 
1.461E+02   5.195E+01  6.492E-01 
1.480E+02   5.241E+01  6.436E-01 
1.499E+02   5.287E+01  6.381E-01 
1.519E+02   5.334E+01  6.326E-01 
1.539E+02   5.381E+01  6.271E-01 
1.559E+02   5.428E+01  6.216E-01 
1.579E+02   5.475E+01  6.162E-01 
1.599E+02   5.523E+01  6.109E-01 
1.620E+02   5.571E+01  6.055E-01 
1.641E+02   5.620E+01  6.002E-01 
1.662E+02   5.668E+01  5.950E-01 
1.684E+02   5.717E+01  5.898E-01 
1.706E+02   5.766E+01  5.846E-01 
1.728E+02   5.816E+01  5.795E-01 
1.751E+02   5.865E+01  5.743E-01 
1.773E+02   5.915E+01  5.693E-01 
1.796E+02   5.966E+01  5.642E-01 
1.820E+02   6.016E+01  5.592E-01 
1.843E+02   6.067E+01  5.543E-01 
1.867E+02   6.118E+01  5.494E-01 
1.892E+02   6.169E+01  5.445E-01 
1.916E+02   6.220E+01  5.396E-01 
1.941E+02   6.271E+01  5.348E-01 
1.966E+02   6.323E+01  5.300E-01 
1.992E+02   6.375E+01  5.253E-01 
2.018E+02   6.427E+01  5.206E-01 
2.044E+02   6.479E+01  5.159E-01 
2.071E+02   6.531E+01  5.113E-01 
2.097E+02   6.583E+01  5.067E-01 
2.125E+02   6.635E+01  5.021E-01 
2.152E+02   6.688E+01  4.976E-01 
2.180E+02   6.740E+01  4.931E-01 
2.209E+02   6.793E+01  4.886E-01 
2.237E+02   6.846E+01  4.842E-01 
2.266E+02   6.898E+01  4.798E-01 
2.296E+02   6.951E+01  4.754E-01 
2.326E+02   7.004E+01  4.711E-01 
2.356E+02   7.056E+01  4.623E-01 
2.387E+02   7.109E+01  4.581E-01 
2.418E+02   7.161E+01  4.540E-01 
2.449E+02   7.214E+01  4.498E-01 
2.481E+02   7.266E+01  4.457E-01 
2.513E+02   7.319E+01  4.416E-01 
2.546E+02   7.371E+01  4.376E-01 
2.579E+02   7.423E+01  4.336E-01 
2.612E+02   7.475E+01  4.296E-01 
2.646E+02   7.526E+01  4.256E-01 
2.681E+02   7.578E+01  4.217E-01 
2.716E+02   7.629E+01  4.178E-01 
2.751E+02   7.680E+01  4.140E-01 
2.787E+02   7.731E+01  4.101E-01 
2.823E+02   7.782E+01  4.063E-01 
2.859E+02   7.832E+01  4.026E-01 
2.897E+02   7.882E+01  3.988E-01 
2.934E+02   7.931E+01  3.951E-01 
2.972E+02   7.981E+01  3.914E-01 
3.011E+02   8.030E+01  3.878E-01 
3.050E+02   8.078E+01  3.841E-01 
3.090E+02   8.126E+01  3.806E-01 
3.130E+02   8.174E+01  3.770E-01 
3.171E+02   8.221E+01  3.735E-01 
3.212E+02   8.268E+01  3.699E-01 
3.254E+02   8.314E+01  3.665E-01 
3.296E+02   8.360E+01  3.630E-01 
3.339E+02   8.405E+01  3.596E-01 
3.382E+02   8.449E+01  3.562E-01 
3.426E+02   8.493E+01  3.528E-01 
3.471E+02   8.537E+01  3.495E-01 
3.516E+02   8.580E+01  3.462E-01 
3.561E+02   8.622E+01  3.429E-01 
3.608E+02   8.664E+01  3.396E-01 
3.655E+02   8.704E+01  3.364E-01 
3.702E+02   8.745E+01  3.332E-01 
3.750E+02   8.784E+01  3.300E-01 
3.799E+02   8.823E+01  3.269E-01 
3.848E+02   8.861E+01  3.238E-01 
3.898E+02   8.898E+01  3.207E-01 
3.949E+02   8.935E+01  3.176E-01 
4.000E+02   8.971E+01  3.145E-01 
4.052E+02   9.006E+01  3.115E-01 
4.105E+02   9.040E+01  3.085E-01 
4.158E+02   9.073E+01  3.056E-01 
4.212E+02   9.106E+01  3.026E-01 
4.267E+02   9.137E+01  2.997E-01 
4.323E+02   9.168E+01  2.968E-01 
4.379E+02   9.198E+01  2.940E-01 
4.436E+02   9.227E+01  2.911E-01 
4.493E+02   9.255E+01  2.883E-01 
4.552E+02   9.282E+01  2.855E-01 
4.611E+02   9.308E+01  2.827E-01 
4.671E+02   9.334E+01  2.800E-01 
4.731E+02   9.358E+01  2.773E-01 
4.793E+02   9.382E+01  2.746E-01 
4.855E+02   9.404E+01  2.719E-01 
4.918E+02   9.426E+01  2.692E-01 
4.982E+02   9.446E+01  2.666E-01 
5.047E+02   9.466E+01  2.640E-01 
5.113E+02   9.485E+01  2.614E-01 
5.179E+02   9.502E+01  2.589E-01 
5.246E+02   9.519E+01  2.563E-01 
5.315E+02   9.535E+01  2.538E-01 
5.384E+02   9.549E+01  2.513E-01 
5.454E+02   9.563E+01  2.489E-01 
5.524E+02   9.576E+01  2.464E-01 
5.596E+02   9.588E+01  2.440E-01 
5.669E+02   9.598E+01  2.416E-01 
5.743E+02   9.608E+01  2.392E-01 
5.817E+02   9.617E+01  2.369E-01 
5.893E+02   9.625E+01  2.345E-01 
5.969E+02   9.632E+01  2.322E-01 
6.047E+02   9.638E+01  2.299E-01 
6.126E+02   9.643E+01  2.276E-01 
6.205E+02   9.647E+01  2.254E-01 
6.286E+02   9.650E+01  2.231E-01 
6.368E+02   9.652E+01  2.209E-01 
6.450E+02   9.653E+01  2.187E-01 
6.534E+02   9.653E+01  2.165E-01 
6.619E+02   9.653E+01  2.144E-01 
6.705E+02   9.651E+01  2.123E-01 
6.792E+02   9.649E+01  2.101E-01 
6.881E+02   9.645E+01  2.080E-01 
6.970E+02   9.641E+01  2.060E-01 
7.061E+02   9.636E+01  2.039E-01 
7.152E+02   9.630E+01  2.019E-01 
7.245E+02   9.623E+01  1.998E-01 
7.339E+02   9.616E+01  1.978E-01 
7.435E+02   9.607E+01  1.959E-01 
7.531E+02   9.598E+01  1.939E-01 
7.629E+02   9.588E+01  1.919E-01 
7.728E+02   9.577E+01  1.900E-01 
7.829E+02   9.566E+01  1.881E-01 
7.931E+02   9.553E+01  1.862E-01 
8.034E+02   9.540E+01  1.843E-01 
8.138E+02   9.526E+01  1.825E-01 
8.244E+02   9.512E+01  1.806E-01 
8.351E+02   9.497E+01  1.788E-01 
8.460E+02   9.481E+01  1.770E-01 
8.570E+02   9.464E+01  1.752E-01 
8.681E+02   9.447E+01  1.734E-01 
8.794E+02   9.429E+01  1.717E-01 
8.908E+02   9.411E+01  1.699E-01 
9.024E+02   9.392E+01  1.682E-01 
9.141E+02   9.372E+01  1.665E-01 
9.260E+02   9.352E+01  1.648E-01 
9.380E+02   9.331E+01  1.631E-01 
9.502E+02   9.310E+01  1.615E-01 
9.626E+02   9.288E+01  1.598E-01 
9.751E+02   9.265E+01  1.582E-01 
9.877E+02   9.243E+01  1.566E-01 
1.001E+03   9.219E+01  1.550E-01 
1.014E+03   9.195E+01  1.534E-01 
1.027E+03   9.171E+01  1.519E-01 
1.040E+03   9.146E+01  1.503E-01 
1.054E+03   9.121E+01  1.488E-01 
1.067E+03   9.096E+01  1.472E-01 
1.081E+03   9.070E+01  1.457E-01 
1.095E+03   9.043E+01  1.442E-01 
1.109E+03   9.017E+01  1.428E-01 
1.124E+03   8.990E+01  1.413E-01 
1.138E+03   8.962E+01  1.398E-01 
1.153E+03   8.935E+01  1.384E-01 
1.168E+03   8.907E+01  1.370E-01 
1.183E+03   8.878E+01  1.356E-01 
1.199E+03   8.850E+01  1.342E-01 
1.214E+03   8.821E+01  1.328E-01 
1.230E+03   8.792E+01  1.314E-01 
1.246E+03   8.762E+01  1.301E-01 
1.262E+03   8.732E+01  1.287E-01 
1.279E+03   8.702E+01  1.274E-01 
1.295E+03   8.672E+01  1.261E-01 
1.312E+03   8.642E+01  1.248E-01 
1.329E+03   8.611E+01  1.235E-01 
1.347E+03   8.581E+01  1.222E-01 
1.364E+03   8.550E+01  1.210E-01 
1.382E+03   8.518E+01  1.197E-01 
1.400E+03   8.487E+01  1.185E-01 
1.418E+03   8.456E+01  1.172E-01 
1.436E+03   8.424E+01  1.160E-01 
1.455E+03   8.392E+01  1.148E-01 
1.474E+03   8.360E+01  1.136E-01 
1.493E+03   8.328E+01  1.124E-01 
1.513E+03   8.296E+01  1.113E-01 
1.532E+03   8.263E+01  1.101E-01 
1.552E+03   8.231E+01  1.090E-01 
1.572E+03   8.198E+01  1.078E-01 
1.593E+03   8.166E+01  1.067E-01 
1.613E+03   8.133E+01  1.056E-01 
1.634E+03   8.100E+01  1.045E-01 
1.656E+03   8.067E+01  1.034E-01 
1.677E+03   8.033E+01  1.023E-01 
1.699E+03   8.000E+01  1.012E-01 
1.721E+03   7.967E+01  1.002E-01 
1.743E+03   7.933E+01  9.913E-02 
1.766E+03   7.900E+01  9.809E-02 
1.789E+03   7.866E+01  9.706E-02 
1.812E+03   7.832E+01  9.605E-02 
1.836E+03   7.798E+01  9.504E-02 
1.860E+03   7.765E+01  9.404E-02 
