Ion = Helium      . Mass = 4.0026
Tgt = Pt (Solid). Density = 21.45 g/cm3
Stopping Units =  eV/(1E15 atoms/cm2)
Energy(keV)  S(Elec)    S(Nuc)
1.000E+00   4.842E+00  1.818E+00 
1.013E+00   4.873E+00  1.823E+00 
1.026E+00   4.905E+00  1.828E+00 
1.039E+00   4.937E+00  1.832E+00 
1.053E+00   4.969E+00  1.837E+00 
1.067E+00   5.001E+00  1.842E+00 
1.081E+00   5.033E+00  1.847E+00 
1.095E+00   5.066E+00  1.851E+00 
1.109E+00   5.099E+00  1.856E+00 
1.123E+00   5.132E+00  1.861E+00 
1.138E+00   5.165E+00  1.865E+00 
1.153E+00   5.198E+00  1.870E+00 
1.168E+00   5.232E+00  1.874E+00 
1.183E+00   5.266E+00  1.879E+00 
1.198E+00   5.300E+00  1.883E+00 
1.214E+00   5.334E+00  1.888E+00 
1.229E+00   5.369E+00  1.893E+00 
1.245E+00   5.404E+00  1.897E+00 
1.262E+00   5.439E+00  1.901E+00 
1.278E+00   5.474E+00  1.906E+00 
1.295E+00   5.509E+00  1.910E+00 
1.311E+00   5.545E+00  1.915E+00 
1.329E+00   5.581E+00  1.919E+00 
1.346E+00   5.617E+00  1.923E+00 
1.363E+00   5.654E+00  1.928E+00 
1.381E+00   5.690E+00  1.932E+00 
1.399E+00   5.727E+00  1.936E+00 
1.417E+00   5.764E+00  1.940E+00 
1.436E+00   5.802E+00  1.945E+00 
1.454E+00   5.839E+00  1.949E+00 
1.473E+00   5.877E+00  1.953E+00 
1.492E+00   5.915E+00  1.957E+00 
1.512E+00   5.953E+00  1.961E+00 
1.531E+00   5.992E+00  1.965E+00 
1.551E+00   6.031E+00  1.969E+00 
1.571E+00   6.070E+00  1.973E+00 
1.592E+00   6.109E+00  1.977E+00 
1.612E+00   6.149E+00  1.981E+00 
1.633E+00   6.188E+00  1.985E+00 
1.655E+00   6.229E+00  1.989E+00 
1.676E+00   6.269E+00  1.993E+00 
1.698E+00   6.309E+00  1.997E+00 
1.720E+00   6.350E+00  2.001E+00 
1.742E+00   6.391E+00  2.005E+00 
1.765E+00   6.433E+00  2.008E+00 
1.788E+00   6.475E+00  2.012E+00 
1.811E+00   6.516E+00  2.016E+00 
1.835E+00   6.559E+00  2.020E+00 
1.859E+00   6.601E+00  2.023E+00 
1.883E+00   6.644E+00  2.027E+00 
1.907E+00   6.687E+00  2.030E+00 
1.932E+00   6.730E+00  2.034E+00 
1.957E+00   6.774E+00  2.037E+00 
1.983E+00   6.818E+00  2.041E+00 
2.008E+00   6.862E+00  2.044E+00 
2.034E+00   6.906E+00  2.048E+00 
2.061E+00   6.951E+00  2.051E+00 
2.088E+00   6.996E+00  2.055E+00 
2.115E+00   7.041E+00  2.058E+00 
2.142E+00   7.087E+00  2.061E+00 
2.170E+00   7.133E+00  2.065E+00 
2.198E+00   7.179E+00  2.068E+00 
2.227E+00   7.226E+00  2.071E+00 
2.256E+00   7.272E+00  2.074E+00 
2.285E+00   7.320E+00  2.077E+00 
2.315E+00   7.367E+00  2.080E+00 
2.345E+00   7.415E+00  2.083E+00 
2.375E+00   7.463E+00  2.086E+00 
2.406E+00   7.511E+00  2.089E+00 
2.438E+00   7.560E+00  2.092E+00 
2.469E+00   7.609E+00  2.095E+00 
2.501E+00   7.658E+00  2.098E+00 
2.534E+00   7.708E+00  2.101E+00 
2.567E+00   7.757E+00  2.104E+00 
2.600E+00   7.808E+00  2.107E+00 
2.634E+00   7.858E+00  2.109E+00 
2.668E+00   7.909E+00  2.112E+00 
2.703E+00   7.960E+00  2.115E+00 
2.738E+00   8.012E+00  2.117E+00 
2.773E+00   8.064E+00  2.120E+00 
2.810E+00   8.116E+00  2.122E+00 
2.846E+00   8.169E+00  2.125E+00 
2.883E+00   8.222E+00  2.127E+00 
2.921E+00   8.275E+00  2.130E+00 
2.958E+00   8.328E+00  2.132E+00 
2.997E+00   8.382E+00  2.134E+00 
3.036E+00   8.437E+00  2.137E+00 
3.075E+00   8.491E+00  2.139E+00 
3.115E+00   8.546E+00  2.141E+00 
3.156E+00   8.602E+00  2.143E+00 
3.197E+00   8.657E+00  2.146E+00 
3.238E+00   8.713E+00  2.148E+00 
3.280E+00   8.770E+00  2.150E+00 
3.323E+00   8.827E+00  2.152E+00 
3.366E+00   8.884E+00  2.154E+00 
3.410E+00   8.941E+00  2.156E+00 
3.454E+00   8.999E+00  2.157E+00 
3.499E+00   9.058E+00  2.159E+00 
3.545E+00   9.116E+00  2.161E+00 
3.591E+00   9.175E+00  2.163E+00 
3.637E+00   9.235E+00  2.165E+00 
3.685E+00   9.295E+00  2.166E+00 
3.733E+00   9.355E+00  2.168E+00 
3.781E+00   9.415E+00  2.169E+00 
3.830E+00   9.476E+00  2.171E+00 
3.880E+00   9.538E+00  2.172E+00 
3.930E+00   9.600E+00  2.174E+00 
3.982E+00   9.662E+00  2.175E+00 
4.033E+00   9.724E+00  2.177E+00 
4.086E+00   9.787E+00  2.178E+00 
4.139E+00   9.851E+00  2.179E+00 
4.193E+00   9.915E+00  2.180E+00 
4.247E+00   9.979E+00  2.182E+00 
4.302E+00   1.004E+01  2.183E+00 
4.358E+00   1.011E+01  2.184E+00 
4.415E+00   1.017E+01  2.185E+00 
4.472E+00   1.024E+01  2.186E+00 
4.530E+00   1.031E+01  2.187E+00 
4.589E+00   1.037E+01  2.188E+00 
4.649E+00   1.044E+01  2.188E+00 
4.709E+00   1.051E+01  2.189E+00 
4.770E+00   1.058E+01  2.190E+00 
4.832E+00   1.064E+01  2.191E+00 
4.895E+00   1.071E+01  2.191E+00 
4.959E+00   1.078E+01  2.192E+00 
5.023E+00   1.085E+01  2.192E+00 
5.089E+00   1.092E+01  2.193E+00 
5.155E+00   1.099E+01  2.193E+00 
5.222E+00   1.106E+01  2.194E+00 
5.290E+00   1.114E+01  2.194E+00 
5.358E+00   1.121E+01  2.194E+00 
5.428E+00   1.128E+01  2.194E+00 
5.499E+00   1.135E+01  2.195E+00 
5.570E+00   1.143E+01  2.195E+00 
5.642E+00   1.150E+01  2.195E+00 
5.716E+00   1.158E+01  2.195E+00 
5.790E+00   1.165E+01  2.195E+00 
5.865E+00   1.173E+01  2.195E+00 
5.942E+00   1.180E+01  2.195E+00 
6.019E+00   1.188E+01  2.194E+00 
6.097E+00   1.196E+01  2.194E+00 
6.176E+00   1.203E+01  2.194E+00 
6.256E+00   1.211E+01  2.194E+00 
6.338E+00   1.219E+01  2.193E+00 
6.420E+00   1.227E+01  2.193E+00 
6.504E+00   1.235E+01  2.192E+00 
6.588E+00   1.243E+01  2.192E+00 
6.674E+00   1.251E+01  2.191E+00 
6.760E+00   1.259E+01  2.190E+00 
6.848E+00   1.267E+01  2.190E+00 
6.937E+00   1.275E+01  2.189E+00 
7.027E+00   1.284E+01  2.188E+00 
7.119E+00   1.292E+01  2.187E+00 
7.211E+00   1.300E+01  2.186E+00 
7.305E+00   1.309E+01  2.185E+00 
7.400E+00   1.317E+01  2.184E+00 
7.496E+00   1.326E+01  2.183E+00 
7.594E+00   1.334E+01  2.182E+00 
7.692E+00   1.343E+01  2.181E+00 
7.792E+00   1.352E+01  2.179E+00 
7.894E+00   1.360E+01  2.178E+00 
7.996E+00   1.369E+01  2.177E+00 
8.100E+00   1.379E+01  2.175E+00 
8.205E+00   1.388E+01  2.174E+00 
8.312E+00   1.398E+01  2.172E+00 
8.420E+00   1.407E+01  2.171E+00 
8.529E+00   1.417E+01  2.169E+00 
8.640E+00   1.426E+01  2.167E+00 
8.753E+00   1.436E+01  2.165E+00 
8.866E+00   1.446E+01  2.164E+00 
8.982E+00   1.456E+01  2.162E+00 
9.098E+00   1.466E+01  2.160E+00 
9.217E+00   1.476E+01  2.158E+00 
9.336E+00   1.486E+01  2.156E+00 
9.458E+00   1.496E+01  2.153E+00 
9.581E+00   1.507E+01  2.151E+00 
9.705E+00   1.517E+01  2.149E+00 
9.831E+00   1.527E+01  2.147E+00 
9.959E+00   1.538E+01  2.144E+00 
1.009E+01   1.548E+01  2.142E+00 
1.022E+01   1.559E+01  2.140E+00 
1.035E+01   1.570E+01  2.137E+00 
1.049E+01   1.580E+01  2.134E+00 
1.062E+01   1.591E+01  2.132E+00 
1.076E+01   1.602E+01  2.129E+00 
1.090E+01   1.613E+01  2.126E+00 
1.104E+01   1.624E+01  2.124E+00 
1.119E+01   1.635E+01  2.121E+00 
1.133E+01   1.646E+01  2.118E+00 
1.148E+01   1.658E+01  2.115E+00 
1.163E+01   1.669E+01  2.112E+00 
1.178E+01   1.681E+01  2.109E+00 
1.193E+01   1.692E+01  2.106E+00 
1.209E+01   1.704E+01  2.102E+00 
1.224E+01   1.715E+01  2.099E+00 
1.240E+01   1.727E+01  2.096E+00 
1.256E+01   1.739E+01  2.093E+00 
1.273E+01   1.751E+01  2.089E+00 
1.289E+01   1.763E+01  2.086E+00 
1.306E+01   1.775E+01  2.082E+00 
1.323E+01   1.787E+01  2.079E+00 
1.340E+01   1.800E+01  2.075E+00 
1.358E+01   1.812E+01  2.071E+00 
1.375E+01   1.824E+01  2.067E+00 
1.393E+01   1.837E+01  2.064E+00 
1.411E+01   1.849E+01  2.060E+00 
1.430E+01   1.862E+01  2.056E+00 
1.448E+01   1.875E+01  2.052E+00 
1.467E+01   1.888E+01  2.048E+00 
1.486E+01   1.901E+01  2.044E+00 
1.505E+01   1.914E+01  2.040E+00 
1.525E+01   1.927E+01  2.035E+00 
1.545E+01   1.940E+01  2.031E+00 
1.565E+01   1.953E+01  2.027E+00 
1.585E+01   1.967E+01  2.023E+00 
1.606E+01   1.980E+01  2.018E+00 
1.627E+01   1.994E+01  2.014E+00 
1.648E+01   2.008E+01  2.009E+00 
1.669E+01   2.021E+01  2.005E+00 
1.691E+01   2.035E+01  2.000E+00 
1.713E+01   2.049E+01  1.995E+00 
1.735E+01   2.063E+01  1.991E+00 
1.758E+01   2.077E+01  1.986E+00 
1.781E+01   2.092E+01  1.981E+00 
1.804E+01   2.106E+01  1.976E+00 
1.827E+01   2.120E+01  1.971E+00 
1.851E+01   2.135E+01  1.967E+00 
1.875E+01   2.150E+01  1.962E+00 
1.899E+01   2.164E+01  1.956E+00 
1.924E+01   2.179E+01  1.951E+00 
1.949E+01   2.194E+01  1.946E+00 
1.974E+01   2.209E+01  1.941E+00 
2.000E+01   2.224E+01  1.936E+00 
2.026E+01   2.240E+01  1.931E+00 
2.052E+01   2.255E+01  1.925E+00 
2.079E+01   2.270E+01  1.920E+00 
2.106E+01   2.286E+01  1.914E+00 
2.133E+01   2.302E+01  1.909E+00 
2.161E+01   2.318E+01  1.903E+00 
2.189E+01   2.333E+01  1.898E+00 
2.218E+01   2.349E+01  1.892E+00 
2.247E+01   2.366E+01  1.887E+00 
2.276E+01   2.382E+01  1.881E+00 
2.305E+01   2.398E+01  1.875E+00 
2.335E+01   2.415E+01  1.869E+00 
2.366E+01   2.431E+01  1.864E+00 
2.396E+01   2.448E+01  1.858E+00 
2.428E+01   2.465E+01  1.852E+00 
2.459E+01   2.482E+01  1.846E+00 
2.491E+01   2.499E+01  1.840E+00 
2.523E+01   2.516E+01  1.834E+00 
2.556E+01   2.533E+01  1.828E+00 
2.589E+01   2.550E+01  1.822E+00 
2.623E+01   2.568E+01  1.816E+00 
2.657E+01   2.585E+01  1.809E+00 
2.692E+01   2.603E+01  1.803E+00 
2.727E+01   2.621E+01  1.797E+00 
2.762E+01   2.639E+01  1.791E+00 
2.798E+01   2.657E+01  1.784E+00 
2.834E+01   2.675E+01  1.778E+00 
2.871E+01   2.694E+01  1.772E+00 
2.909E+01   2.712E+01  1.765E+00 
2.946E+01   2.731E+01  1.759E+00 
2.985E+01   2.749E+01  1.752E+00 
3.023E+01   2.768E+01  1.746E+00 
3.063E+01   2.787E+01  1.739E+00 
3.103E+01   2.806E+01  1.733E+00 
3.143E+01   2.825E+01  1.726E+00 
3.184E+01   2.845E+01  1.720E+00 
3.225E+01   2.864E+01  1.713E+00 
3.267E+01   2.884E+01  1.706E+00 
3.309E+01   2.904E+01  1.699E+00 
3.352E+01   2.924E+01  1.693E+00 
3.396E+01   2.944E+01  1.686E+00 
3.440E+01   2.964E+01  1.679E+00 
3.485E+01   2.984E+01  1.672E+00 
3.530E+01   3.004E+01  1.665E+00 
3.576E+01   3.025E+01  1.659E+00 
3.623E+01   3.046E+01  1.652E+00 
3.670E+01   3.067E+01  1.645E+00 
3.717E+01   3.088E+01  1.638E+00 
3.766E+01   3.109E+01  1.631E+00 
3.815E+01   3.130E+01  1.624E+00 
3.864E+01   3.151E+01  1.617E+00 
3.914E+01   3.173E+01  1.610E+00 
3.965E+01   3.195E+01  1.603E+00 
4.017E+01   3.217E+01  1.596E+00 
4.069E+01   3.239E+01  1.589E+00 
4.122E+01   3.261E+01  1.582E+00 
4.175E+01   3.283E+01  1.574E+00 
4.230E+01   3.305E+01  1.567E+00 
4.285E+01   3.328E+01  1.560E+00 
4.340E+01   3.351E+01  1.553E+00 
4.397E+01   3.374E+01  1.546E+00 
4.454E+01   3.397E+01  1.539E+00 
4.512E+01   3.420E+01  1.531E+00 
4.570E+01   3.443E+01  1.524E+00 
4.630E+01   3.467E+01  1.517E+00 
4.690E+01   3.490E+01  1.510E+00 
4.751E+01   3.514E+01  1.502E+00 
4.813E+01   3.538E+01  1.495E+00 
4.875E+01   3.562E+01  1.488E+00 
4.939E+01   3.587E+01  1.480E+00 
5.003E+01   3.611E+01  1.473E+00 
5.068E+01   3.636E+01  1.466E+00 
5.134E+01   3.660E+01  1.459E+00 
5.200E+01   3.685E+01  1.451E+00 
5.268E+01   3.710E+01  1.444E+00 
5.336E+01   3.736E+01  1.437E+00 
5.406E+01   3.761E+01  1.429E+00 
5.476E+01   3.787E+01  1.422E+00 
5.547E+01   3.812E+01  1.414E+00 
5.619E+01   3.838E+01  1.407E+00 
5.692E+01   3.865E+01  1.400E+00 
5.766E+01   3.891E+01  1.392E+00 
5.841E+01   3.917E+01  1.385E+00 
5.917E+01   3.944E+01  1.378E+00 
5.994E+01   3.971E+01  1.370E+00 
6.072E+01   3.998E+01  1.363E+00 
6.151E+01   4.025E+01  1.355E+00 
6.231E+01   4.052E+01  1.348E+00 
6.312E+01   4.080E+01  1.341E+00 
6.394E+01   4.107E+01  1.333E+00 
6.477E+01   4.135E+01  1.326E+00 
6.561E+01   4.163E+01  1.319E+00 
6.646E+01   4.191E+01  1.311E+00 
6.733E+01   4.220E+01  1.304E+00 
6.820E+01   4.248E+01  1.297E+00 
6.909E+01   4.277E+01  1.289E+00 
6.999E+01   4.306E+01  1.282E+00 
7.090E+01   4.335E+01  1.275E+00 
7.182E+01   4.364E+01  1.267E+00 
7.275E+01   4.394E+01  1.260E+00 
7.370E+01   4.424E+01  1.253E+00 
7.465E+01   4.453E+01  1.245E+00 
7.562E+01   4.483E+01  1.238E+00 
7.661E+01   4.514E+01  1.231E+00 
7.760E+01   4.544E+01  1.223E+00 
7.861E+01   4.575E+01  1.216E+00 
7.963E+01   4.606E+01  1.209E+00 
8.067E+01   4.637E+01  1.202E+00 
8.172E+01   4.668E+01  1.194E+00 
8.278E+01   4.699E+01  1.187E+00 
8.385E+01   4.731E+01  1.180E+00 
8.494E+01   4.762E+01  1.173E+00 
8.605E+01   4.794E+01  1.165E+00 
8.717E+01   4.827E+01  1.158E+00 
8.830E+01   4.859E+01  1.151E+00 
8.945E+01   4.891E+01  1.144E+00 
9.061E+01   4.924E+01  1.137E+00 
9.179E+01   4.957E+01  1.130E+00 
9.298E+01   4.990E+01  1.122E+00 
9.419E+01   5.024E+01  1.115E+00 
9.541E+01   5.057E+01  1.108E+00 
9.665E+01   5.091E+01  1.101E+00 
9.791E+01   5.125E+01  1.094E+00 
9.918E+01   5.159E+01  1.087E+00 
1.005E+02   5.193E+01  1.080E+00 
1.018E+02   5.228E+01  1.073E+00 
1.031E+02   5.263E+01  1.066E+00 
1.044E+02   5.298E+01  1.059E+00 
1.058E+02   5.333E+01  1.052E+00 
1.072E+02   5.368E+01  1.045E+00 
1.086E+02   5.404E+01  1.038E+00 
1.100E+02   5.439E+01  1.032E+00 
1.114E+02   5.475E+01  1.025E+00 
1.129E+02   5.512E+01  1.018E+00 
1.143E+02   5.548E+01  1.011E+00 
1.158E+02   5.585E+01  1.004E+00 
1.173E+02   5.621E+01  9.974E-01 
1.188E+02   5.658E+01  9.906E-01 
1.204E+02   5.696E+01  9.839E-01 
1.219E+02   5.733E+01  9.772E-01 
1.235E+02   5.771E+01  9.705E-01 
1.251E+02   5.808E+01  9.638E-01 
1.268E+02   5.846E+01  9.572E-01 
1.284E+02   5.885E+01  9.505E-01 
1.301E+02   5.923E+01  9.439E-01 
1.318E+02   5.962E+01  9.373E-01 
1.335E+02   6.001E+01  9.308E-01 
1.352E+02   6.040E+01  9.243E-01 
1.370E+02   6.079E+01  9.178E-01 
1.388E+02   6.118E+01  9.113E-01 
1.406E+02   6.158E+01  9.048E-01 
1.424E+02   6.198E+01  8.984E-01 
1.442E+02   6.238E+01  8.920E-01 
1.461E+02   6.278E+01  8.856E-01 
1.480E+02   6.319E+01  8.793E-01 
1.499E+02   6.359E+01  8.729E-01 
1.519E+02   6.400E+01  8.666E-01 
1.539E+02   6.441E+01  8.603E-01 
1.559E+02   6.483E+01  8.541E-01 
1.579E+02   6.524E+01  8.479E-01 
1.599E+02   6.566E+01  8.417E-01 
1.620E+02   6.608E+01  8.355E-01 
1.641E+02   6.650E+01  8.294E-01 
1.662E+02   6.692E+01  8.232E-01 
1.684E+02   6.734E+01  8.172E-01 
1.706E+02   6.777E+01  8.111E-01 
1.728E+02   6.820E+01  8.051E-01 
1.751E+02   6.863E+01  7.991E-01 
1.773E+02   6.906E+01  7.931E-01 
1.796E+02   6.949E+01  7.871E-01 
1.820E+02   6.993E+01  7.812E-01 
1.843E+02   7.036E+01  7.753E-01 
1.867E+02   7.080E+01  7.695E-01 
1.892E+02   7.124E+01  7.636E-01 
1.916E+02   7.169E+01  7.578E-01 
1.941E+02   7.213E+01  7.520E-01 
1.966E+02   7.258E+01  7.463E-01 
1.992E+02   7.302E+01  7.406E-01 
2.018E+02   7.347E+01  7.349E-01 
2.044E+02   7.392E+01  7.292E-01 
2.071E+02   7.437E+01  7.236E-01 
2.097E+02   7.483E+01  7.180E-01 
2.125E+02   7.528E+01  7.124E-01 
2.152E+02   7.574E+01  7.069E-01 
2.180E+02   7.620E+01  7.014E-01 
2.209E+02   7.666E+01  6.959E-01 
2.237E+02   7.712E+01  6.904E-01 
2.266E+02   7.758E+01  6.850E-01 
2.296E+02   7.805E+01  6.796E-01 
2.326E+02   7.851E+01  6.742E-01 
2.356E+02   7.898E+01  6.689E-01 
2.387E+02   7.945E+01  6.636E-01 
2.418E+02   7.991E+01  6.583E-01 
2.449E+02   8.038E+01  6.531E-01 
2.481E+02   8.086E+01  6.478E-01 
2.513E+02   8.133E+01  6.426E-01 
2.546E+02   8.180E+01  6.375E-01 
2.579E+02   8.227E+01  6.324E-01 
2.612E+02   8.275E+01  6.273E-01 
2.646E+02   8.322E+01  6.222E-01 
2.681E+02   8.370E+01  6.172E-01 
2.716E+02   8.418E+01  6.121E-01 
2.751E+02   8.466E+01  6.072E-01 
2.787E+02   8.513E+01  6.022E-01 
2.823E+02   8.561E+01  5.973E-01 
2.859E+02   8.609E+01  5.924E-01 
2.897E+02   8.657E+01  5.875E-01 
2.934E+02   8.705E+01  5.827E-01 
2.972E+02   8.753E+01  5.779E-01 
3.011E+02   8.801E+01  5.731E-01 
3.050E+02   8.849E+01  5.684E-01 
3.090E+02   8.898E+01  5.637E-01 
3.130E+02   8.946E+01  5.590E-01 
3.171E+02   8.994E+01  5.543E-01 
3.212E+02   9.042E+01  5.497E-01 
3.254E+02   9.090E+01  5.451E-01 
3.296E+02   9.138E+01  5.406E-01 
3.339E+02   9.186E+01  5.360E-01 
3.382E+02   9.234E+01  5.315E-01 
3.426E+02   9.282E+01  5.270E-01 
3.471E+02   9.330E+01  5.226E-01 
3.516E+02   9.377E+01  5.182E-01 
3.561E+02   9.425E+01  5.138E-01 
3.608E+02   9.472E+01  5.094E-01 
3.655E+02   9.520E+01  5.051E-01 
3.702E+02   9.567E+01  5.008E-01 
3.750E+02   9.615E+01  4.965E-01 
3.799E+02   9.662E+01  4.923E-01 
3.848E+02   9.709E+01  4.881E-01 
3.898E+02   9.755E+01  4.839E-01 
3.949E+02   9.802E+01  4.797E-01 
4.000E+02   9.848E+01  4.756E-01 
4.052E+02   9.895E+01  4.715E-01 
4.105E+02   9.941E+01  4.674E-01 
4.158E+02   9.987E+01  4.634E-01 
4.212E+02   1.003E+02  4.594E-01 
4.267E+02   1.008E+02  4.554E-01 
4.323E+02   1.012E+02  4.514E-01 
4.379E+02   1.017E+02  4.475E-01 
4.436E+02   1.021E+02  4.436E-01 
4.493E+02   1.026E+02  4.397E-01 
4.552E+02   1.030E+02  4.358E-01 
4.611E+02   1.034E+02  4.320E-01 
4.671E+02   1.039E+02  4.282E-01 
4.731E+02   1.043E+02  4.245E-01 
4.793E+02   1.047E+02  4.207E-01 
4.855E+02   1.052E+02  4.170E-01 
4.918E+02   1.056E+02  4.133E-01 
4.982E+02   1.060E+02  4.097E-01 
5.047E+02   1.064E+02  4.060E-01 
5.113E+02   1.068E+02  4.024E-01 
5.179E+02   1.072E+02  3.988E-01 
5.246E+02   1.076E+02  3.953E-01 
5.315E+02   1.080E+02  3.918E-01 
5.384E+02   1.084E+02  3.883E-01 
5.454E+02   1.088E+02  3.848E-01 
5.524E+02   1.092E+02  3.813E-01 
5.596E+02   1.095E+02  3.779E-01 
5.669E+02   1.099E+02  3.745E-01 
5.743E+02   1.103E+02  3.851E-01 
5.817E+02   1.106E+02  3.816E-01 
5.893E+02   1.110E+02  3.781E-01 
5.969E+02   1.113E+02  3.747E-01 
6.047E+02   1.117E+02  3.712E-01 
6.126E+02   1.120E+02  3.678E-01 
6.205E+02   1.123E+02  3.645E-01 
6.286E+02   1.126E+02  3.611E-01 
6.368E+02   1.130E+02  3.578E-01 
6.450E+02   1.133E+02  3.545E-01 
6.534E+02   1.136E+02  3.513E-01 
6.619E+02   1.139E+02  3.480E-01 
6.705E+02   1.141E+02  3.448E-01 
6.792E+02   1.144E+02  3.416E-01 
6.881E+02   1.147E+02  3.384E-01 
6.970E+02   1.149E+02  3.353E-01 
7.061E+02   1.152E+02  3.322E-01 
7.152E+02   1.154E+02  3.291E-01 
7.245E+02   1.157E+02  3.260E-01 
7.339E+02   1.159E+02  3.230E-01 
7.435E+02   1.161E+02  3.200E-01 
7.531E+02   1.164E+02  3.170E-01 
7.629E+02   1.166E+02  3.140E-01 
7.728E+02   1.168E+02  3.111E-01 
7.829E+02   1.169E+02  3.082E-01 
7.931E+02   1.171E+02  3.053E-01 
8.034E+02   1.173E+02  3.024E-01 
8.138E+02   1.174E+02  2.995E-01 
8.244E+02   1.176E+02  2.967E-01 
8.351E+02   1.177E+02  2.939E-01 
8.460E+02   1.179E+02  2.911E-01 
8.570E+02   1.180E+02  2.884E-01 
8.681E+02   1.181E+02  2.856E-01 
8.794E+02   1.182E+02  2.829E-01 
8.908E+02   1.183E+02  2.802E-01 
9.024E+02   1.184E+02  2.776E-01 
9.141E+02   1.185E+02  2.749E-01 
9.260E+02   1.185E+02  2.723E-01 
9.380E+02   1.186E+02  2.697E-01 
9.502E+02   1.186E+02  2.671E-01 
9.626E+02   1.186E+02  2.646E-01 
9.751E+02   1.187E+02  2.620E-01 
9.877E+02   1.187E+02  2.595E-01 
1.001E+03   1.187E+02  2.570E-01 
1.014E+03   1.187E+02  2.546E-01 
1.027E+03   1.187E+02  2.521E-01 
1.040E+03   1.186E+02  2.497E-01 
1.054E+03   1.186E+02  2.473E-01 
1.067E+03   1.185E+02  2.449E-01 
1.081E+03   1.185E+02  2.425E-01 
1.095E+03   1.184E+02  2.402E-01 
1.109E+03   1.183E+02  2.379E-01 
1.124E+03   1.183E+02  2.356E-01 
1.138E+03   1.182E+02  2.333E-01 
1.153E+03   1.180E+02  2.310E-01 
1.168E+03   1.179E+02  2.288E-01 
1.183E+03   1.178E+02  2.265E-01 
1.199E+03   1.177E+02  2.243E-01 
1.214E+03   1.175E+02  2.221E-01 
1.230E+03   1.174E+02  2.200E-01 
1.246E+03   1.172E+02  2.178E-01 
1.262E+03   1.170E+02  2.157E-01 
1.279E+03   1.168E+02  2.136E-01 
1.295E+03   1.166E+02  2.115E-01 
1.312E+03   1.164E+02  2.094E-01 
1.329E+03   1.162E+02  2.074E-01 
1.347E+03   1.160E+02  2.053E-01 
1.364E+03   1.157E+02  2.033E-01 
1.382E+03   1.155E+02  2.013E-01 
1.400E+03   1.153E+02  1.993E-01 
1.418E+03   1.150E+02  1.973E-01 
1.436E+03   1.147E+02  1.954E-01 
1.455E+03   1.145E+02  1.935E-01 
1.474E+03   1.142E+02  1.916E-01 
1.493E+03   1.139E+02  1.897E-01 
1.513E+03   1.136E+02  1.878E-01 
1.532E+03   1.133E+02  1.859E-01 
1.552E+03   1.130E+02  1.841E-01 
1.572E+03   1.127E+02  1.822E-01 
1.593E+03   1.123E+02  1.804E-01 
1.613E+03   1.120E+02  1.786E-01 
1.634E+03   1.117E+02  1.769E-01 
1.656E+03   1.113E+02  1.751E-01 
1.677E+03   1.110E+02  1.734E-01 
1.699E+03   1.106E+02  1.716E-01 
1.721E+03   1.102E+02  1.699E-01 
1.743E+03   1.099E+02  1.682E-01 
1.766E+03   1.095E+02  1.665E-01 
1.789E+03   1.091E+02  1.649E-01 
1.812E+03   1.087E+02  1.632E-01 
1.836E+03   1.083E+02  1.616E-01 
1.860E+03   1.079E+02  1.599E-01 
