Ion = Helium      . Mass = 4.0026
Tgt = Ta (Solid). Density = 16.601 g/cm3
Stopping Units =  eV/(1E15 atoms/cm2)
Energy(keV)  S(Elec)    S(Nuc)
1.000E+00   6.242E+00  1.831E+00 
1.013E+00   6.282E+00  1.836E+00 
1.026E+00   6.323E+00  1.841E+00 
1.039E+00   6.364E+00  1.847E+00 
1.053E+00   6.405E+00  1.852E+00 
1.067E+00   6.447E+00  1.857E+00 
1.081E+00   6.488E+00  1.862E+00 
1.095E+00   6.530E+00  1.867E+00 
1.109E+00   6.573E+00  1.871E+00 
1.123E+00   6.615E+00  1.876E+00 
1.138E+00   6.658E+00  1.881E+00 
1.153E+00   6.701E+00  1.886E+00 
1.168E+00   6.745E+00  1.891E+00 
1.183E+00   6.788E+00  1.896E+00 
1.198E+00   6.832E+00  1.901E+00 
1.214E+00   6.877E+00  1.906E+00 
1.229E+00   6.921E+00  1.910E+00 
1.245E+00   6.966E+00  1.915E+00 
1.262E+00   7.011E+00  1.920E+00 
1.278E+00   7.056E+00  1.925E+00 
1.295E+00   7.102E+00  1.929E+00 
1.311E+00   7.148E+00  1.934E+00 
1.329E+00   7.194E+00  1.939E+00 
1.346E+00   7.241E+00  1.943E+00 
1.363E+00   7.288E+00  1.948E+00 
1.381E+00   7.335E+00  1.953E+00 
1.399E+00   7.383E+00  1.957E+00 
1.417E+00   7.430E+00  1.962E+00 
1.436E+00   7.479E+00  1.966E+00 
1.454E+00   7.527E+00  1.971E+00 
1.473E+00   7.576E+00  1.975E+00 
1.492E+00   7.625E+00  1.980E+00 
1.512E+00   7.674E+00  1.984E+00 
1.531E+00   7.724E+00  1.989E+00 
1.551E+00   7.774E+00  1.993E+00 
1.571E+00   7.824E+00  1.997E+00 
1.592E+00   7.875E+00  2.002E+00 
1.612E+00   7.926E+00  2.006E+00 
1.633E+00   7.977E+00  2.010E+00 
1.655E+00   8.029E+00  2.014E+00 
1.676E+00   8.081E+00  2.019E+00 
1.698E+00   8.133E+00  2.023E+00 
1.720E+00   8.186E+00  2.027E+00 
1.742E+00   8.239E+00  2.031E+00 
1.765E+00   8.292E+00  2.035E+00 
1.788E+00   8.346E+00  2.039E+00 
1.811E+00   8.400E+00  2.043E+00 
1.835E+00   8.455E+00  2.047E+00 
1.859E+00   8.509E+00  2.051E+00 
1.883E+00   8.565E+00  2.055E+00 
1.907E+00   8.620E+00  2.059E+00 
1.932E+00   8.676E+00  2.063E+00 
1.957E+00   8.732E+00  2.067E+00 
1.983E+00   8.789E+00  2.070E+00 
2.008E+00   8.846E+00  2.074E+00 
2.034E+00   8.903E+00  2.078E+00 
2.061E+00   8.961E+00  2.082E+00 
2.088E+00   9.019E+00  2.085E+00 
2.115E+00   9.077E+00  2.089E+00 
2.142E+00   9.136E+00  2.093E+00 
2.170E+00   9.195E+00  2.096E+00 
2.198E+00   9.255E+00  2.100E+00 
2.227E+00   9.314E+00  2.103E+00 
2.256E+00   9.375E+00  2.107E+00 
2.285E+00   9.436E+00  2.110E+00 
2.315E+00   9.497E+00  2.113E+00 
2.345E+00   9.558E+00  2.117E+00 
2.375E+00   9.620E+00  2.120E+00 
2.406E+00   9.682E+00  2.123E+00 
2.438E+00   9.745E+00  2.127E+00 
2.469E+00   9.808E+00  2.130E+00 
2.501E+00   9.872E+00  2.133E+00 
2.534E+00   9.936E+00  2.136E+00 
2.567E+00   1.000E+01  2.139E+00 
2.600E+00   1.006E+01  2.142E+00 
2.634E+00   1.013E+01  2.145E+00 
2.668E+00   1.020E+01  2.148E+00 
2.703E+00   1.026E+01  2.151E+00 
2.738E+00   1.033E+01  2.154E+00 
2.773E+00   1.040E+01  2.157E+00 
2.810E+00   1.046E+01  2.160E+00 
2.846E+00   1.053E+01  2.162E+00 
2.883E+00   1.060E+01  2.165E+00 
2.921E+00   1.067E+01  2.168E+00 
2.958E+00   1.074E+01  2.170E+00 
2.997E+00   1.081E+01  2.173E+00 
3.036E+00   1.088E+01  2.176E+00 
3.075E+00   1.095E+01  2.178E+00 
3.115E+00   1.102E+01  2.181E+00 
3.156E+00   1.109E+01  2.183E+00 
3.197E+00   1.116E+01  2.185E+00 
3.238E+00   1.123E+01  2.188E+00 
3.280E+00   1.131E+01  2.190E+00 
3.323E+00   1.138E+01  2.192E+00 
3.366E+00   1.145E+01  2.194E+00 
3.410E+00   1.153E+01  2.197E+00 
3.454E+00   1.160E+01  2.199E+00 
3.499E+00   1.168E+01  2.201E+00 
3.545E+00   1.175E+01  2.203E+00 
3.591E+00   1.183E+01  2.205E+00 
3.637E+00   1.190E+01  2.207E+00 
3.685E+00   1.198E+01  2.208E+00 
3.733E+00   1.206E+01  2.210E+00 
3.781E+00   1.214E+01  2.212E+00 
3.830E+00   1.222E+01  2.214E+00 
3.880E+00   1.229E+01  2.215E+00 
3.930E+00   1.237E+01  2.217E+00 
3.982E+00   1.245E+01  2.219E+00 
4.033E+00   1.254E+01  2.220E+00 
4.086E+00   1.262E+01  2.222E+00 
4.139E+00   1.270E+01  2.223E+00 
4.193E+00   1.278E+01  2.224E+00 
4.247E+00   1.286E+01  2.226E+00 
4.302E+00   1.295E+01  2.227E+00 
4.358E+00   1.303E+01  2.228E+00 
4.415E+00   1.311E+01  2.229E+00 
4.472E+00   1.320E+01  2.231E+00 
4.530E+00   1.329E+01  2.232E+00 
4.589E+00   1.337E+01  2.233E+00 
4.649E+00   1.346E+01  2.234E+00 
4.709E+00   1.355E+01  2.235E+00 
4.770E+00   1.363E+01  2.235E+00 
4.832E+00   1.372E+01  2.236E+00 
4.895E+00   1.381E+01  2.237E+00 
4.959E+00   1.390E+01  2.238E+00 
5.023E+00   1.399E+01  2.238E+00 
5.089E+00   1.408E+01  2.239E+00 
5.155E+00   1.417E+01  2.239E+00 
5.222E+00   1.426E+01  2.240E+00 
5.290E+00   1.436E+01  2.240E+00 
5.358E+00   1.445E+01  2.241E+00 
5.428E+00   1.454E+01  2.241E+00 
5.499E+00   1.464E+01  2.241E+00 
5.570E+00   1.473E+01  2.241E+00 
5.642E+00   1.483E+01  2.241E+00 
5.716E+00   1.492E+01  2.242E+00 
5.790E+00   1.502E+01  2.242E+00 
5.865E+00   1.512E+01  2.241E+00 
5.942E+00   1.521E+01  2.241E+00 
6.019E+00   1.531E+01  2.241E+00 
6.097E+00   1.541E+01  2.241E+00 
6.176E+00   1.551E+01  2.241E+00 
6.256E+00   1.561E+01  2.240E+00 
6.338E+00   1.571E+01  2.240E+00 
6.420E+00   1.582E+01  2.240E+00 
6.504E+00   1.592E+01  2.239E+00 
6.588E+00   1.602E+01  2.239E+00 
6.674E+00   1.612E+01  2.238E+00 
6.760E+00   1.623E+01  2.237E+00 
6.848E+00   1.633E+01  2.236E+00 
6.937E+00   1.644E+01  2.236E+00 
7.027E+00   1.655E+01  2.235E+00 
7.119E+00   1.665E+01  2.234E+00 
7.211E+00   1.676E+01  2.233E+00 
7.305E+00   1.687E+01  2.232E+00 
7.400E+00   1.698E+01  2.231E+00 
7.496E+00   1.709E+01  2.230E+00 
7.594E+00   1.720E+01  2.228E+00 
7.692E+00   1.731E+01  2.227E+00 
7.792E+00   1.742E+01  2.226E+00 
7.894E+00   1.754E+01  2.224E+00 
7.996E+00   1.765E+01  2.223E+00 
8.100E+00   1.776E+01  2.221E+00 
8.205E+00   1.787E+01  2.220E+00 
8.312E+00   1.797E+01  2.218E+00 
8.420E+00   1.808E+01  2.216E+00 
8.529E+00   1.819E+01  2.215E+00 
8.640E+00   1.830E+01  2.213E+00 
8.753E+00   1.841E+01  2.211E+00 
8.866E+00   1.853E+01  2.209E+00 
8.982E+00   1.864E+01  2.207E+00 
9.098E+00   1.875E+01  2.205E+00 
9.217E+00   1.886E+01  2.203E+00 
9.336E+00   1.898E+01  2.200E+00 
9.458E+00   1.909E+01  2.198E+00 
9.581E+00   1.921E+01  2.196E+00 
9.705E+00   1.933E+01  2.193E+00 
9.831E+00   1.944E+01  2.191E+00 
9.959E+00   1.956E+01  2.188E+00 
1.009E+01   1.968E+01  2.186E+00 
1.022E+01   1.980E+01  2.183E+00 
1.035E+01   1.992E+01  2.181E+00 
1.049E+01   2.004E+01  2.178E+00 
1.062E+01   2.016E+01  2.175E+00 
1.076E+01   2.028E+01  2.172E+00 
1.090E+01   2.041E+01  2.169E+00 
1.104E+01   2.053E+01  2.166E+00 
1.119E+01   2.066E+01  2.163E+00 
1.133E+01   2.078E+01  2.160E+00 
1.148E+01   2.091E+01  2.157E+00 
1.163E+01   2.103E+01  2.153E+00 
1.178E+01   2.116E+01  2.150E+00 
1.193E+01   2.129E+01  2.147E+00 
1.209E+01   2.142E+01  2.143E+00 
1.224E+01   2.155E+01  2.140E+00 
1.240E+01   2.168E+01  2.136E+00 
1.256E+01   2.181E+01  2.133E+00 
1.273E+01   2.194E+01  2.129E+00 
1.289E+01   2.208E+01  2.125E+00 
1.306E+01   2.221E+01  2.121E+00 
1.323E+01   2.235E+01  2.118E+00 
1.340E+01   2.248E+01  2.114E+00 
1.358E+01   2.262E+01  2.110E+00 
1.375E+01   2.276E+01  2.106E+00 
1.393E+01   2.289E+01  2.102E+00 
1.411E+01   2.303E+01  2.097E+00 
1.430E+01   2.317E+01  2.093E+00 
1.448E+01   2.331E+01  2.089E+00 
1.467E+01   2.346E+01  2.085E+00 
1.486E+01   2.360E+01  2.080E+00 
1.505E+01   2.374E+01  2.076E+00 
1.525E+01   2.389E+01  2.071E+00 
1.545E+01   2.403E+01  2.067E+00 
1.565E+01   2.418E+01  2.062E+00 
1.585E+01   2.432E+01  2.057E+00 
1.606E+01   2.447E+01  2.053E+00 
1.627E+01   2.462E+01  2.048E+00 
1.648E+01   2.477E+01  2.043E+00 
1.669E+01   2.492E+01  2.038E+00 
1.691E+01   2.507E+01  2.033E+00 
1.713E+01   2.522E+01  2.028E+00 
1.735E+01   2.538E+01  2.023E+00 
1.758E+01   2.553E+01  2.018E+00 
1.781E+01   2.568E+01  2.013E+00 
1.804E+01   2.584E+01  2.008E+00 
1.827E+01   2.600E+01  2.003E+00 
1.851E+01   2.616E+01  1.997E+00 
1.875E+01   2.631E+01  1.992E+00 
1.899E+01   2.647E+01  1.987E+00 
1.924E+01   2.663E+01  1.981E+00 
1.949E+01   2.680E+01  1.976E+00 
1.974E+01   2.696E+01  1.970E+00 
2.000E+01   2.712E+01  1.965E+00 
2.026E+01   2.729E+01  1.959E+00 
2.052E+01   2.745E+01  1.953E+00 
2.079E+01   2.762E+01  1.947E+00 
2.106E+01   2.779E+01  1.942E+00 
2.133E+01   2.796E+01  1.936E+00 
2.161E+01   2.813E+01  1.930E+00 
2.189E+01   2.830E+01  1.924E+00 
2.218E+01   2.847E+01  1.918E+00 
2.247E+01   2.864E+01  1.912E+00 
2.276E+01   2.882E+01  1.906E+00 
2.305E+01   2.899E+01  1.900E+00 
2.335E+01   2.917E+01  1.894E+00 
2.366E+01   2.934E+01  1.888E+00 
2.396E+01   2.952E+01  1.881E+00 
2.428E+01   2.970E+01  1.875E+00 
2.459E+01   2.988E+01  1.869E+00 
2.491E+01   3.006E+01  1.862E+00 
2.523E+01   3.024E+01  1.856E+00 
2.556E+01   3.043E+01  1.850E+00 
2.589E+01   3.061E+01  1.843E+00 
2.623E+01   3.080E+01  1.837E+00 
2.657E+01   3.099E+01  1.830E+00 
2.692E+01   3.117E+01  1.823E+00 
2.727E+01   3.136E+01  1.817E+00 
2.762E+01   3.155E+01  1.810E+00 
2.798E+01   3.174E+01  1.804E+00 
2.834E+01   3.194E+01  1.797E+00 
2.871E+01   3.213E+01  1.790E+00 
2.909E+01   3.233E+01  1.783E+00 
2.946E+01   3.252E+01  1.776E+00 
2.985E+01   3.272E+01  1.770E+00 
3.023E+01   3.292E+01  1.763E+00 
3.063E+01   3.312E+01  1.756E+00 
3.103E+01   3.332E+01  1.749E+00 
3.143E+01   3.352E+01  1.742E+00 
3.184E+01   3.372E+01  1.735E+00 
3.225E+01   3.393E+01  1.728E+00 
3.267E+01   3.413E+01  1.721E+00 
3.309E+01   3.434E+01  1.714E+00 
3.352E+01   3.455E+01  1.707E+00 
3.396E+01   3.476E+01  1.700E+00 
3.440E+01   3.497E+01  1.692E+00 
3.485E+01   3.518E+01  1.685E+00 
3.530E+01   3.539E+01  1.678E+00 
3.576E+01   3.561E+01  1.671E+00 
3.623E+01   3.582E+01  1.664E+00 
3.670E+01   3.604E+01  1.656E+00 
3.717E+01   3.626E+01  1.649E+00 
3.766E+01   3.648E+01  1.642E+00 
3.815E+01   3.670E+01  1.634E+00 
3.864E+01   3.692E+01  1.627E+00 
3.914E+01   3.715E+01  1.620E+00 
3.965E+01   3.737E+01  1.612E+00 
4.017E+01   3.760E+01  1.605E+00 
4.069E+01   3.782E+01  1.597E+00 
4.122E+01   3.805E+01  1.590E+00 
4.175E+01   3.828E+01  1.583E+00 
4.230E+01   3.852E+01  1.575E+00 
4.285E+01   3.875E+01  1.568E+00 
4.340E+01   3.898E+01  1.560E+00 
4.397E+01   3.922E+01  1.553E+00 
4.454E+01   3.946E+01  1.545E+00 
4.512E+01   3.969E+01  1.538E+00 
4.570E+01   3.993E+01  1.530E+00 
4.630E+01   4.018E+01  1.522E+00 
4.690E+01   4.042E+01  1.515E+00 
4.751E+01   4.066E+01  1.507E+00 
4.813E+01   4.091E+01  1.500E+00 
4.875E+01   4.116E+01  1.492E+00 
4.939E+01   4.140E+01  1.485E+00 
5.003E+01   4.165E+01  1.477E+00 
5.068E+01   4.191E+01  1.469E+00 
5.134E+01   4.216E+01  1.462E+00 
5.200E+01   4.241E+01  1.454E+00 
5.268E+01   4.267E+01  1.447E+00 
5.336E+01   4.293E+01  1.439E+00 
5.406E+01   4.319E+01  1.431E+00 
5.476E+01   4.345E+01  1.424E+00 
5.547E+01   4.371E+01  1.416E+00 
5.619E+01   4.397E+01  1.408E+00 
5.692E+01   4.424E+01  1.401E+00 
5.766E+01   4.450E+01  1.393E+00 
5.841E+01   4.477E+01  1.385E+00 
5.917E+01   4.504E+01  1.378E+00 
5.994E+01   4.531E+01  1.370E+00 
6.072E+01   4.558E+01  1.363E+00 
6.151E+01   4.586E+01  1.355E+00 
6.231E+01   4.613E+01  1.347E+00 
6.312E+01   4.641E+01  1.340E+00 
6.394E+01   4.669E+01  1.332E+00 
6.477E+01   4.697E+01  1.325E+00 
6.561E+01   4.725E+01  1.317E+00 
6.646E+01   4.754E+01  1.309E+00 
6.733E+01   4.782E+01  1.302E+00 
6.820E+01   4.811E+01  1.294E+00 
6.909E+01   4.840E+01  1.287E+00 
6.999E+01   4.869E+01  1.279E+00 
7.090E+01   4.898E+01  1.272E+00 
7.182E+01   4.927E+01  1.264E+00 
7.275E+01   4.957E+01  1.256E+00 
7.370E+01   4.986E+01  1.249E+00 
7.465E+01   5.016E+01  1.241E+00 
7.562E+01   5.046E+01  1.234E+00 
7.661E+01   5.076E+01  1.226E+00 
7.760E+01   5.107E+01  1.219E+00 
7.861E+01   5.137E+01  1.211E+00 
7.963E+01   5.168E+01  1.204E+00 
8.067E+01   5.199E+01  1.197E+00 
8.172E+01   5.230E+01  1.189E+00 
8.278E+01   5.261E+01  1.182E+00 
8.385E+01   5.292E+01  1.174E+00 
8.494E+01   5.324E+01  1.167E+00 
8.605E+01   5.355E+01  1.160E+00 
8.717E+01   5.387E+01  1.152E+00 
8.830E+01   5.419E+01  1.145E+00 
8.945E+01   5.452E+01  1.138E+00 
9.061E+01   5.484E+01  1.130E+00 
9.179E+01   5.516E+01  1.123E+00 
9.298E+01   5.549E+01  1.116E+00 
9.419E+01   5.582E+01  1.109E+00 
9.541E+01   5.615E+01  1.101E+00 
9.665E+01   5.648E+01  1.094E+00 
9.791E+01   5.682E+01  1.087E+00 
9.918E+01   5.715E+01  1.080E+00 
1.005E+02   5.749E+01  1.073E+00 
1.018E+02   5.783E+01  1.065E+00 
1.031E+02   5.817E+01  1.058E+00 
1.044E+02   5.851E+01  1.051E+00 
1.058E+02   5.886E+01  1.044E+00 
1.072E+02   5.921E+01  1.037E+00 
1.086E+02   5.955E+01  1.030E+00 
1.100E+02   5.990E+01  1.023E+00 
1.114E+02   6.025E+01  1.016E+00 
1.129E+02   6.061E+01  1.009E+00 
1.143E+02   6.096E+01  1.002E+00 
1.158E+02   6.132E+01  9.954E-01 
1.173E+02   6.168E+01  9.885E-01 
1.188E+02   6.204E+01  9.816E-01 
1.204E+02   6.240E+01  9.748E-01 
1.219E+02   6.276E+01  9.680E-01 
1.235E+02   6.313E+01  9.612E-01 
1.251E+02   6.350E+01  9.545E-01 
1.268E+02   6.387E+01  9.477E-01 
1.284E+02   6.424E+01  9.410E-01 
1.301E+02   6.461E+01  9.343E-01 
1.318E+02   6.498E+01  9.277E-01 
1.335E+02   6.536E+01  9.211E-01 
1.352E+02   6.574E+01  9.145E-01 
1.370E+02   6.612E+01  9.079E-01 
1.388E+02   6.650E+01  9.013E-01 
1.406E+02   6.688E+01  8.948E-01 
1.424E+02   6.726E+01  8.883E-01 
1.442E+02   6.765E+01  8.818E-01 
1.461E+02   6.804E+01  8.754E-01 
1.480E+02   6.843E+01  8.690E-01 
1.499E+02   6.882E+01  8.626E-01 
1.519E+02   6.921E+01  8.563E-01 
1.539E+02   6.960E+01  8.499E-01 
1.559E+02   7.000E+01  8.436E-01 
1.579E+02   7.040E+01  8.374E-01 
1.599E+02   7.079E+01  8.311E-01 
1.620E+02   7.119E+01  8.249E-01 
1.641E+02   7.160E+01  8.187E-01 
1.662E+02   7.200E+01  8.126E-01 
1.684E+02   7.240E+01  8.065E-01 
1.706E+02   7.281E+01  8.004E-01 
1.728E+02   7.322E+01  7.943E-01 
1.751E+02   7.363E+01  7.883E-01 
1.773E+02   7.404E+01  7.823E-01 
1.796E+02   7.445E+01  7.763E-01 
1.820E+02   7.487E+01  7.703E-01 
1.843E+02   7.528E+01  7.644E-01 
1.867E+02   7.570E+01  7.585E-01 
1.892E+02   7.611E+01  7.527E-01 
1.916E+02   7.653E+01  7.469E-01 
1.941E+02   7.695E+01  7.411E-01 
1.966E+02   7.737E+01  7.353E-01 
1.992E+02   7.780E+01  7.296E-01 
2.018E+02   7.822E+01  7.239E-01 
2.044E+02   7.865E+01  7.182E-01 
2.071E+02   7.907E+01  7.126E-01 
2.097E+02   7.950E+01  7.069E-01 
2.125E+02   7.993E+01  7.014E-01 
2.152E+02   8.036E+01  6.958E-01 
2.180E+02   8.079E+01  6.903E-01 
2.209E+02   8.122E+01  6.848E-01 
2.237E+02   8.165E+01  6.794E-01 
2.266E+02   8.208E+01  6.739E-01 
2.296E+02   8.252E+01  6.685E-01 
2.326E+02   8.295E+01  6.632E-01 
2.356E+02   8.339E+01  6.578E-01 
2.387E+02   8.382E+01  6.525E-01 
2.418E+02   8.426E+01  6.473E-01 
2.449E+02   8.470E+01  6.420E-01 
2.481E+02   8.514E+01  6.368E-01 
2.513E+02   8.558E+01  6.316E-01 
2.546E+02   8.601E+01  6.265E-01 
2.579E+02   8.645E+01  6.214E-01 
2.612E+02   8.689E+01  6.163E-01 
2.646E+02   8.733E+01  6.112E-01 
2.681E+02   8.777E+01  6.062E-01 
2.716E+02   8.821E+01  6.012E-01 
2.751E+02   8.865E+01  5.963E-01 
2.787E+02   8.909E+01  5.913E-01 
2.823E+02   8.953E+01  5.864E-01 
2.859E+02   8.997E+01  5.815E-01 
2.897E+02   9.041E+01  5.767E-01 
2.934E+02   9.085E+01  5.719E-01 
2.972E+02   9.129E+01  5.671E-01 
3.011E+02   9.173E+01  5.624E-01 
3.050E+02   9.217E+01  5.577E-01 
3.090E+02   9.261E+01  5.530E-01 
3.130E+02   9.305E+01  5.483E-01 
3.171E+02   9.348E+01  5.437E-01 
3.212E+02   9.392E+01  5.391E-01 
3.254E+02   9.436E+01  5.345E-01 
3.296E+02   9.479E+01  5.300E-01 
3.339E+02   9.522E+01  5.255E-01 
3.382E+02   9.565E+01  5.210E-01 
3.426E+02   9.609E+01  5.166E-01 
3.471E+02   9.652E+01  5.122E-01 
3.516E+02   9.694E+01  5.078E-01 
3.561E+02   9.737E+01  5.034E-01 
3.608E+02   9.779E+01  4.991E-01 
3.655E+02   9.822E+01  4.948E-01 
3.702E+02   9.864E+01  4.905E-01 
3.750E+02   9.906E+01  4.863E-01 
3.799E+02   9.947E+01  4.821E-01 
3.848E+02   9.989E+01  4.779E-01 
3.898E+02   1.003E+02  4.738E-01 
3.949E+02   1.007E+02  4.696E-01 
4.000E+02   1.011E+02  4.655E-01 
4.052E+02   1.015E+02  4.615E-01 
4.105E+02   1.019E+02  4.575E-01 
4.158E+02   1.023E+02  4.534E-01 
4.212E+02   1.027E+02  4.495E-01 
4.267E+02   1.031E+02  4.455E-01 
4.323E+02   1.035E+02  4.416E-01 
4.379E+02   1.039E+02  4.377E-01 
4.436E+02   1.043E+02  4.338E-01 
4.493E+02   1.047E+02  4.300E-01 
4.552E+02   1.050E+02  4.262E-01 
4.611E+02   1.054E+02  4.224E-01 
4.671E+02   1.058E+02  4.187E-01 
4.731E+02   1.061E+02  4.150E-01 
4.793E+02   1.065E+02  4.113E-01 
4.855E+02   1.069E+02  4.076E-01 
4.918E+02   1.072E+02  4.039E-01 
4.982E+02   1.076E+02  4.003E-01 
5.047E+02   1.079E+02  3.967E-01 
5.113E+02   1.082E+02  3.932E-01 
5.179E+02   1.086E+02  3.896E-01 
5.246E+02   1.089E+02  3.861E-01 
5.315E+02   1.092E+02  3.927E-01 
5.384E+02   1.095E+02  3.891E-01 
5.454E+02   1.098E+02  3.856E-01 
5.524E+02   1.101E+02  3.820E-01 
5.596E+02   1.104E+02  3.786E-01 
5.669E+02   1.107E+02  3.751E-01 
5.743E+02   1.110E+02  3.717E-01 
5.817E+02   1.113E+02  3.683E-01 
5.893E+02   1.116E+02  3.649E-01 
5.969E+02   1.118E+02  3.615E-01 
6.047E+02   1.121E+02  3.582E-01 
6.126E+02   1.124E+02  3.549E-01 
6.205E+02   1.126E+02  3.516E-01 
6.286E+02   1.128E+02  3.484E-01 
6.368E+02   1.131E+02  3.451E-01 
6.450E+02   1.133E+02  3.419E-01 
6.534E+02   1.135E+02  3.388E-01 
6.619E+02   1.137E+02  3.356E-01 
6.705E+02   1.139E+02  3.325E-01 
6.792E+02   1.141E+02  3.294E-01 
6.881E+02   1.143E+02  3.263E-01 
6.970E+02   1.145E+02  3.233E-01 
7.061E+02   1.147E+02  3.202E-01 
7.152E+02   1.148E+02  3.172E-01 
7.245E+02   1.150E+02  3.143E-01 
7.339E+02   1.151E+02  3.113E-01 
7.435E+02   1.153E+02  3.084E-01 
7.531E+02   1.154E+02  3.055E-01 
7.629E+02   1.155E+02  3.026E-01 
7.728E+02   1.157E+02  2.997E-01 
7.829E+02   1.158E+02  2.969E-01 
7.931E+02   1.159E+02  2.941E-01 
8.034E+02   1.159E+02  2.913E-01 
8.138E+02   1.160E+02  2.885E-01 
8.244E+02   1.161E+02  2.858E-01 
8.351E+02   1.162E+02  2.831E-01 
8.460E+02   1.162E+02  2.804E-01 
8.570E+02   1.163E+02  2.777E-01 
8.681E+02   1.163E+02  2.751E-01 
8.794E+02   1.163E+02  2.724E-01 
8.908E+02   1.164E+02  2.698E-01 
9.024E+02   1.164E+02  2.672E-01 
9.141E+02   1.164E+02  2.647E-01 
9.260E+02   1.164E+02  2.621E-01 
9.380E+02   1.164E+02  2.596E-01 
9.502E+02   1.163E+02  2.571E-01 
9.626E+02   1.163E+02  2.546E-01 
9.751E+02   1.163E+02  2.522E-01 
9.877E+02   1.162E+02  2.498E-01 
1.001E+03   1.162E+02  2.473E-01 
1.014E+03   1.161E+02  2.449E-01 
1.027E+03   1.160E+02  2.426E-01 
1.040E+03   1.160E+02  2.402E-01 
1.054E+03   1.159E+02  2.379E-01 
1.067E+03   1.158E+02  2.356E-01 
1.081E+03   1.157E+02  2.333E-01 
1.095E+03   1.156E+02  2.310E-01 
1.109E+03   1.154E+02  2.288E-01 
1.124E+03   1.153E+02  2.265E-01 
1.138E+03   1.152E+02  2.243E-01 
1.153E+03   1.150E+02  2.221E-01 
1.168E+03   1.149E+02  2.200E-01 
1.183E+03   1.147E+02  2.178E-01 
1.199E+03   1.146E+02  2.157E-01 
1.214E+03   1.144E+02  2.136E-01 
1.230E+03   1.142E+02  2.115E-01 
1.246E+03   1.140E+02  2.094E-01 
1.262E+03   1.138E+02  2.073E-01 
1.279E+03   1.136E+02  2.053E-01 
1.295E+03   1.134E+02  2.033E-01 
1.312E+03   1.132E+02  2.013E-01 
1.329E+03   1.130E+02  1.993E-01 
1.347E+03   1.128E+02  1.973E-01 
1.364E+03   1.126E+02  1.954E-01 
1.382E+03   1.123E+02  1.934E-01 
1.400E+03   1.121E+02  1.915E-01 
1.418E+03   1.118E+02  1.896E-01 
1.436E+03   1.116E+02  1.877E-01 
1.455E+03   1.113E+02  1.859E-01 
1.474E+03   1.111E+02  1.840E-01 
1.493E+03   1.108E+02  1.822E-01 
1.513E+03   1.105E+02  1.804E-01 
1.532E+03   1.102E+02  1.786E-01 
1.552E+03   1.100E+02  1.768E-01 
1.572E+03   1.097E+02  1.750E-01 
1.593E+03   1.094E+02  1.733E-01 
1.613E+03   1.091E+02  1.716E-01 
1.634E+03   1.088E+02  1.698E-01 
1.656E+03   1.085E+02  1.681E-01 
1.677E+03   1.082E+02  1.664E-01 
1.699E+03   1.079E+02  1.648E-01 
1.721E+03   1.075E+02  1.631E-01 
1.743E+03   1.072E+02  1.615E-01 
1.766E+03   1.069E+02  1.599E-01 
1.789E+03   1.066E+02  1.583E-01 
1.812E+03   1.062E+02  1.567E-01 
1.836E+03   1.059E+02  1.551E-01 
1.860E+03   1.056E+02  1.535E-01 
