Ion = Helium      . Mass = 4.0026
Tgt =  C (Solid). Density = 2.253 g/cm3
Stopping Units =  eV/(1E15 atoms/cm2)
Energy(keV)  S(Elec)    S(Nuc)
1.000E+00   2.812E+00  3.592E+00 
1.013E+00   2.830E+00  3.584E+00 
1.026E+00   2.849E+00  3.576E+00 
1.039E+00   2.867E+00  3.567E+00 
1.053E+00   2.886E+00  3.559E+00 
1.067E+00   2.904E+00  3.550E+00 
1.081E+00   2.923E+00  3.541E+00 
1.095E+00   2.942E+00  3.532E+00 
1.109E+00   2.961E+00  3.523E+00 
1.123E+00   2.980E+00  3.514E+00 
1.138E+00   3.000E+00  3.505E+00 
1.153E+00   3.019E+00  3.496E+00 
1.168E+00   3.039E+00  3.486E+00 
1.183E+00   3.058E+00  3.477E+00 
1.198E+00   3.078E+00  3.467E+00 
1.214E+00   3.098E+00  3.458E+00 
1.229E+00   3.118E+00  3.448E+00 
1.245E+00   3.138E+00  3.438E+00 
1.262E+00   3.159E+00  3.428E+00 
1.278E+00   3.179E+00  3.418E+00 
1.295E+00   3.200E+00  3.408E+00 
1.311E+00   3.221E+00  3.398E+00 
1.329E+00   3.241E+00  3.387E+00 
1.346E+00   3.262E+00  3.377E+00 
1.363E+00   3.284E+00  3.366E+00 
1.381E+00   3.305E+00  3.356E+00 
1.399E+00   3.326E+00  3.345E+00 
1.417E+00   3.348E+00  3.335E+00 
1.436E+00   3.369E+00  3.324E+00 
1.454E+00   3.391E+00  3.313E+00 
1.473E+00   3.413E+00  3.302E+00 
1.492E+00   3.435E+00  3.291E+00 
1.512E+00   3.458E+00  3.280E+00 
1.531E+00   3.480E+00  3.268E+00 
1.551E+00   3.502E+00  3.257E+00 
1.571E+00   3.525E+00  3.246E+00 
1.592E+00   3.548E+00  3.234E+00 
1.612E+00   3.571E+00  3.223E+00 
1.633E+00   3.594E+00  3.211E+00 
1.655E+00   3.617E+00  3.200E+00 
1.676E+00   3.641E+00  3.188E+00 
1.698E+00   3.664E+00  3.176E+00 
1.720E+00   3.688E+00  3.164E+00 
1.742E+00   3.712E+00  3.152E+00 
1.765E+00   3.736E+00  3.140E+00 
1.788E+00   3.760E+00  3.128E+00 
1.811E+00   3.785E+00  3.116E+00 
1.835E+00   3.809E+00  3.104E+00 
1.859E+00   3.834E+00  3.092E+00 
1.883E+00   3.859E+00  3.079E+00 
1.907E+00   3.884E+00  3.067E+00 
1.932E+00   3.909E+00  3.055E+00 
1.957E+00   3.934E+00  3.042E+00 
1.983E+00   3.960E+00  3.030E+00 
2.008E+00   3.985E+00  3.017E+00 
2.034E+00   4.011E+00  3.005E+00 
2.061E+00   4.037E+00  2.992E+00 
2.088E+00   4.063E+00  2.979E+00 
2.115E+00   4.090E+00  2.966E+00 
2.142E+00   4.116E+00  2.954E+00 
2.170E+00   4.143E+00  2.941E+00 
2.198E+00   4.170E+00  2.928E+00 
2.227E+00   4.197E+00  2.915E+00 
2.256E+00   4.224E+00  2.902E+00 
2.285E+00   4.251E+00  2.889E+00 
2.315E+00   4.279E+00  2.876E+00 
2.345E+00   4.306E+00  2.863E+00 
2.375E+00   4.334E+00  2.850E+00 
2.406E+00   4.362E+00  2.837E+00 
2.438E+00   4.391E+00  2.824E+00 
2.469E+00   4.419E+00  2.810E+00 
2.501E+00   4.448E+00  2.797E+00 
2.534E+00   4.476E+00  2.784E+00 
2.567E+00   4.505E+00  2.771E+00 
2.600E+00   4.535E+00  2.757E+00 
2.634E+00   4.564E+00  2.744E+00 
2.668E+00   4.594E+00  2.731E+00 
2.703E+00   4.623E+00  2.717E+00 
2.738E+00   4.653E+00  2.704E+00 
2.773E+00   4.683E+00  2.690E+00 
2.810E+00   4.714E+00  2.677E+00 
2.846E+00   4.744E+00  2.664E+00 
2.883E+00   4.775E+00  2.650E+00 
2.921E+00   4.806E+00  2.637E+00 
2.958E+00   4.837E+00  2.623E+00 
2.997E+00   4.868E+00  2.610E+00 
3.036E+00   4.900E+00  2.596E+00 
3.075E+00   4.932E+00  2.583E+00 
3.115E+00   4.964E+00  2.569E+00 
3.156E+00   4.996E+00  2.555E+00 
3.197E+00   5.028E+00  2.542E+00 
3.238E+00   5.061E+00  2.528E+00 
3.280E+00   5.093E+00  2.515E+00 
3.323E+00   5.126E+00  2.501E+00 
3.366E+00   5.160E+00  2.488E+00 
3.410E+00   5.193E+00  2.474E+00 
3.454E+00   5.227E+00  2.460E+00 
3.499E+00   5.261E+00  2.447E+00 
3.545E+00   5.295E+00  2.433E+00 
3.591E+00   5.329E+00  2.420E+00 
3.637E+00   5.363E+00  2.406E+00 
3.685E+00   5.398E+00  2.393E+00 
3.733E+00   5.433E+00  2.379E+00 
3.781E+00   5.468E+00  2.366E+00 
3.830E+00   5.504E+00  2.352E+00 
3.880E+00   5.539E+00  2.338E+00 
3.930E+00   5.575E+00  2.325E+00 
3.982E+00   5.611E+00  2.311E+00 
4.033E+00   5.648E+00  2.298E+00 
4.086E+00   5.684E+00  2.284E+00 
4.139E+00   5.721E+00  2.271E+00 
4.193E+00   5.758E+00  2.258E+00 
4.247E+00   5.795E+00  2.244E+00 
4.302E+00   5.833E+00  2.231E+00 
4.358E+00   5.871E+00  2.217E+00 
4.415E+00   5.909E+00  2.204E+00 
4.472E+00   5.947E+00  2.190E+00 
4.530E+00   5.986E+00  2.177E+00 
4.589E+00   6.024E+00  2.164E+00 
4.649E+00   6.063E+00  2.151E+00 
4.709E+00   6.103E+00  2.137E+00 
4.770E+00   6.142E+00  2.124E+00 
4.832E+00   6.182E+00  2.111E+00 
4.895E+00   6.222E+00  2.098E+00 
4.959E+00   6.262E+00  2.084E+00 
5.023E+00   6.303E+00  2.071E+00 
5.089E+00   6.344E+00  2.058E+00 
5.155E+00   6.385E+00  2.045E+00 
5.222E+00   6.426E+00  2.032E+00 
5.290E+00   6.468E+00  2.019E+00 
5.358E+00   6.510E+00  2.006E+00 
5.428E+00   6.552E+00  1.993E+00 
5.499E+00   6.594E+00  1.980E+00 
5.570E+00   6.637E+00  1.967E+00 
5.642E+00   6.680E+00  1.954E+00 
5.716E+00   6.723E+00  1.941E+00 
5.790E+00   6.767E+00  1.928E+00 
5.865E+00   6.811E+00  1.916E+00 
5.942E+00   6.855E+00  1.903E+00 
6.019E+00   6.899E+00  1.890E+00 
6.097E+00   6.944E+00  1.878E+00 
6.176E+00   6.989E+00  1.865E+00 
6.256E+00   7.034E+00  1.852E+00 
6.338E+00   7.080E+00  1.840E+00 
6.420E+00   7.125E+00  1.827E+00 
6.504E+00   7.172E+00  1.815E+00 
6.588E+00   7.218E+00  1.802E+00 
6.674E+00   7.265E+00  1.790E+00 
6.760E+00   7.312E+00  1.778E+00 
6.848E+00   7.359E+00  1.765E+00 
6.937E+00   7.407E+00  1.753E+00 
7.027E+00   7.455E+00  1.741E+00 
7.119E+00   7.503E+00  1.729E+00 
7.211E+00   7.552E+00  1.717E+00 
7.305E+00   7.601E+00  1.705E+00 
7.400E+00   7.650E+00  1.692E+00 
7.496E+00   7.700E+00  1.680E+00 
7.594E+00   7.749E+00  1.669E+00 
7.692E+00   7.800E+00  1.657E+00 
7.792E+00   7.850E+00  1.645E+00 
7.894E+00   7.901E+00  1.633E+00 
7.996E+00   7.952E+00  1.621E+00 
8.100E+00   8.003E+00  1.609E+00 
8.205E+00   8.055E+00  1.598E+00 
8.312E+00   8.107E+00  1.586E+00 
8.420E+00   8.159E+00  1.575E+00 
8.529E+00   8.211E+00  1.563E+00 
8.640E+00   8.264E+00  1.552E+00 
8.753E+00   8.318E+00  1.540E+00 
8.866E+00   8.371E+00  1.529E+00 
8.982E+00   8.425E+00  1.518E+00 
9.098E+00   8.480E+00  1.506E+00 
9.217E+00   8.534E+00  1.495E+00 
9.336E+00   8.589E+00  1.484E+00 
9.458E+00   8.645E+00  1.473E+00 
9.581E+00   8.701E+00  1.462E+00 
9.705E+00   8.757E+00  1.451E+00 
9.831E+00   8.814E+00  1.440E+00 
9.959E+00   8.870E+00  1.429E+00 
1.009E+01   8.928E+00  1.418E+00 
1.022E+01   8.986E+00  1.407E+00 
1.035E+01   9.044E+00  1.397E+00 
1.049E+01   9.102E+00  1.386E+00 
1.062E+01   9.161E+00  1.375E+00 
1.076E+01   9.220E+00  1.365E+00 
1.090E+01   9.280E+00  1.354E+00 
1.104E+01   9.340E+00  1.344E+00 
1.119E+01   9.401E+00  1.333E+00 
1.133E+01   9.462E+00  1.323E+00 
1.148E+01   9.523E+00  1.313E+00 
1.163E+01   9.585E+00  1.302E+00 
1.178E+01   9.647E+00  1.292E+00 
1.193E+01   9.709E+00  1.282E+00 
1.209E+01   9.772E+00  1.272E+00 
1.224E+01   9.835E+00  1.262E+00 
1.240E+01   9.899E+00  1.252E+00 
1.256E+01   9.963E+00  1.242E+00 
1.273E+01   1.003E+01  1.232E+00 
1.289E+01   1.009E+01  1.222E+00 
1.306E+01   1.016E+01  1.213E+00 
1.323E+01   1.022E+01  1.203E+00 
1.340E+01   1.029E+01  1.193E+00 
1.358E+01   1.036E+01  1.184E+00 
1.375E+01   1.042E+01  1.174E+00 
1.393E+01   1.049E+01  1.165E+00 
1.411E+01   1.056E+01  1.155E+00 
1.430E+01   1.063E+01  1.146E+00 
1.448E+01   1.070E+01  1.136E+00 
1.467E+01   1.077E+01  1.127E+00 
1.486E+01   1.084E+01  1.118E+00 
1.505E+01   1.091E+01  1.109E+00 
1.525E+01   1.098E+01  1.100E+00 
1.545E+01   1.105E+01  1.091E+00 
1.565E+01   1.112E+01  1.082E+00 
1.585E+01   1.119E+01  1.073E+00 
1.606E+01   1.126E+01  1.064E+00 
1.627E+01   1.134E+01  1.055E+00 
1.648E+01   1.141E+01  1.046E+00 
1.669E+01   1.148E+01  1.038E+00 
1.691E+01   1.156E+01  1.029E+00 
1.713E+01   1.163E+01  1.020E+00 
1.735E+01   1.171E+01  1.012E+00 
1.758E+01   1.178E+01  1.003E+00 
1.781E+01   1.186E+01  9.949E-01 
1.804E+01   1.193E+01  9.866E-01 
1.827E+01   1.201E+01  9.782E-01 
1.851E+01   1.209E+01  9.700E-01 
1.875E+01   1.217E+01  9.618E-01 
1.899E+01   1.224E+01  9.536E-01 
1.924E+01   1.232E+01  9.455E-01 
1.949E+01   1.240E+01  9.374E-01 
1.974E+01   1.248E+01  9.295E-01 
2.000E+01   1.256E+01  9.215E-01 
2.026E+01   1.264E+01  9.136E-01 
2.052E+01   1.272E+01  9.058E-01 
2.079E+01   1.280E+01  8.980E-01 
2.106E+01   1.288E+01  8.903E-01 
2.133E+01   1.296E+01  8.826E-01 
2.161E+01   1.305E+01  8.750E-01 
2.189E+01   1.313E+01  8.674E-01 
2.218E+01   1.321E+01  8.599E-01 
2.247E+01   1.330E+01  8.524E-01 
2.276E+01   1.338E+01  8.450E-01 
2.305E+01   1.346E+01  8.376E-01 
2.335E+01   1.355E+01  8.303E-01 
2.366E+01   1.363E+01  8.231E-01 
2.396E+01   1.372E+01  8.159E-01 
2.428E+01   1.380E+01  8.087E-01 
2.459E+01   1.389E+01  8.016E-01 
2.491E+01   1.398E+01  7.945E-01 
2.523E+01   1.406E+01  7.875E-01 
2.556E+01   1.415E+01  7.806E-01 
2.589E+01   1.424E+01  7.737E-01 
2.623E+01   1.433E+01  7.668E-01 
2.657E+01   1.441E+01  7.600E-01 
2.692E+01   1.450E+01  7.533E-01 
2.727E+01   1.459E+01  7.466E-01 
2.762E+01   1.468E+01  7.399E-01 
2.798E+01   1.477E+01  7.333E-01 
2.834E+01   1.486E+01  7.268E-01 
2.871E+01   1.495E+01  7.202E-01 
2.909E+01   1.504E+01  7.138E-01 
2.946E+01   1.513E+01  7.074E-01 
2.985E+01   1.522E+01  7.010E-01 
3.023E+01   1.531E+01  6.947E-01 
3.063E+01   1.540E+01  6.884E-01 
3.103E+01   1.549E+01  6.822E-01 
3.143E+01   1.558E+01  6.761E-01 
3.184E+01   1.567E+01  6.699E-01 
3.225E+01   1.576E+01  6.639E-01 
3.267E+01   1.585E+01  6.578E-01 
3.309E+01   1.595E+01  6.518E-01 
3.352E+01   1.604E+01  6.459E-01 
3.396E+01   1.613E+01  6.400E-01 
3.440E+01   1.622E+01  6.342E-01 
3.485E+01   1.631E+01  6.284E-01 
3.530E+01   1.640E+01  6.226E-01 
3.576E+01   1.650E+01  6.169E-01 
3.623E+01   1.659E+01  6.112E-01 
3.670E+01   1.668E+01  6.056E-01 
3.717E+01   1.677E+01  6.000E-01 
3.766E+01   1.686E+01  5.945E-01 
3.815E+01   1.696E+01  5.890E-01 
3.864E+01   1.705E+01  5.836E-01 
3.914E+01   1.714E+01  5.782E-01 
3.965E+01   1.723E+01  5.356E-01 
4.017E+01   1.732E+01  5.308E-01 
4.069E+01   1.741E+01  5.259E-01 
4.122E+01   1.751E+01  5.211E-01 
4.175E+01   1.760E+01  5.164E-01 
4.230E+01   1.769E+01  5.117E-01 
4.285E+01   1.778E+01  5.070E-01 
4.340E+01   1.787E+01  5.023E-01 
4.397E+01   1.796E+01  4.977E-01 
4.454E+01   1.805E+01  4.932E-01 
4.512E+01   1.814E+01  4.886E-01 
4.570E+01   1.823E+01  4.841E-01 
4.630E+01   1.832E+01  4.796E-01 
4.690E+01   1.841E+01  4.752E-01 
4.751E+01   1.850E+01  4.708E-01 
4.813E+01   1.859E+01  4.664E-01 
4.875E+01   1.868E+01  4.621E-01 
4.939E+01   1.877E+01  4.578E-01 
5.003E+01   1.886E+01  4.535E-01 
5.068E+01   1.895E+01  4.493E-01 
5.134E+01   1.904E+01  4.451E-01 
5.200E+01   1.913E+01  4.410E-01 
5.268E+01   1.922E+01  4.368E-01 
5.336E+01   1.931E+01  4.327E-01 
5.406E+01   1.940E+01  4.287E-01 
5.476E+01   1.949E+01  4.247E-01 
5.547E+01   1.958E+01  4.207E-01 
5.619E+01   1.967E+01  4.167E-01 
5.692E+01   1.977E+01  4.128E-01 
5.766E+01   1.986E+01  4.089E-01 
5.841E+01   1.995E+01  4.050E-01 
5.917E+01   2.004E+01  4.012E-01 
5.994E+01   2.013E+01  3.974E-01 
6.072E+01   2.022E+01  3.936E-01 
6.151E+01   2.032E+01  3.899E-01 
6.231E+01   2.041E+01  3.861E-01 
6.312E+01   2.050E+01  3.825E-01 
6.394E+01   2.060E+01  3.788E-01 
6.477E+01   2.069E+01  3.752E-01 
6.561E+01   2.079E+01  3.716E-01 
6.646E+01   2.088E+01  3.681E-01 
6.733E+01   2.098E+01  3.645E-01 
6.820E+01   2.108E+01  3.610E-01 
6.909E+01   2.118E+01  3.576E-01 
6.999E+01   2.127E+01  3.541E-01 
7.090E+01   2.137E+01  3.507E-01 
7.182E+01   2.147E+01  3.474E-01 
7.275E+01   2.158E+01  3.440E-01 
7.370E+01   2.168E+01  3.407E-01 
7.465E+01   2.178E+01  3.374E-01 
7.562E+01   2.188E+01  3.341E-01 
7.661E+01   2.199E+01  3.309E-01 
7.760E+01   2.209E+01  3.277E-01 
7.861E+01   2.220E+01  3.245E-01 
7.963E+01   2.231E+01  3.214E-01 
8.067E+01   2.241E+01  3.182E-01 
8.172E+01   2.252E+01  3.151E-01 
8.278E+01   2.263E+01  3.121E-01 
8.385E+01   2.274E+01  3.090E-01 
8.494E+01   2.285E+01  3.060E-01 
8.605E+01   2.297E+01  3.030E-01 
8.717E+01   2.308E+01  3.001E-01 
8.830E+01   2.320E+01  2.971E-01 
8.945E+01   2.331E+01  2.942E-01 
9.061E+01   2.343E+01  2.913E-01 
9.179E+01   2.354E+01  2.885E-01 
9.298E+01   2.366E+01  2.856E-01 
9.419E+01   2.378E+01  2.828E-01 
9.541E+01   2.390E+01  2.800E-01 
9.665E+01   2.402E+01  2.773E-01 
9.791E+01   2.414E+01  2.745E-01 
9.918E+01   2.427E+01  2.718E-01 
1.005E+02   2.439E+01  2.692E-01 
1.018E+02   2.451E+01  2.665E-01 
1.031E+02   2.464E+01  2.639E-01 
1.044E+02   2.476E+01  2.612E-01 
1.058E+02   2.489E+01  2.587E-01 
1.072E+02   2.502E+01  2.561E-01 
1.086E+02   2.514E+01  2.535E-01 
1.100E+02   2.527E+01  2.510E-01 
1.114E+02   2.540E+01  2.485E-01 
1.129E+02   2.553E+01  2.460E-01 
1.143E+02   2.566E+01  2.436E-01 
1.158E+02   2.579E+01  2.412E-01 
1.173E+02   2.593E+01  2.388E-01 
1.188E+02   2.606E+01  2.364E-01 
1.204E+02   2.619E+01  2.340E-01 
1.219E+02   2.633E+01  2.317E-01 
1.235E+02   2.646E+01  2.294E-01 
1.251E+02   2.659E+01  2.271E-01 
1.268E+02   2.673E+01  2.248E-01 
1.284E+02   2.686E+01  2.225E-01 
1.301E+02   2.700E+01  2.203E-01 
1.318E+02   2.714E+01  2.181E-01 
1.335E+02   2.727E+01  2.159E-01 
1.352E+02   2.741E+01  2.137E-01 
1.370E+02   2.755E+01  2.115E-01 
1.388E+02   2.769E+01  2.094E-01 
1.406E+02   2.782E+01  2.073E-01 
1.424E+02   2.796E+01  2.052E-01 
1.442E+02   2.810E+01  2.031E-01 
1.461E+02   2.824E+01  2.011E-01 
1.480E+02   2.838E+01  1.990E-01 
1.499E+02   2.852E+01  1.970E-01 
1.519E+02   2.866E+01  1.950E-01 
1.539E+02   2.880E+01  1.931E-01 
1.559E+02   2.894E+01  1.911E-01 
1.579E+02   2.907E+01  1.892E-01 
1.599E+02   2.921E+01  1.872E-01 
1.620E+02   2.935E+01  1.853E-01 
1.641E+02   2.949E+01  1.834E-01 
1.662E+02   2.963E+01  1.816E-01 
1.684E+02   2.977E+01  1.797E-01 
1.706E+02   2.991E+01  1.779E-01 
1.728E+02   3.005E+01  1.761E-01 
1.751E+02   3.019E+01  1.743E-01 
1.773E+02   3.033E+01  1.725E-01 
1.796E+02   3.047E+01  1.707E-01 
1.820E+02   3.060E+01  1.690E-01 
1.843E+02   3.074E+01  1.672E-01 
1.867E+02   3.088E+01  1.655E-01 
1.892E+02   3.102E+01  1.638E-01 
1.916E+02   3.115E+01  1.622E-01 
1.941E+02   3.129E+01  1.605E-01 
1.966E+02   3.143E+01  1.588E-01 
1.992E+02   3.156E+01  1.572E-01 
2.018E+02   3.170E+01  1.556E-01 
2.044E+02   3.183E+01  1.540E-01 
2.071E+02   3.197E+01  1.524E-01 
2.097E+02   3.210E+01  1.508E-01 
2.125E+02   3.224E+01  1.493E-01 
2.152E+02   3.237E+01  1.477E-01 
2.180E+02   3.250E+01  1.462E-01 
2.209E+02   3.263E+01  1.447E-01 
2.237E+02   3.276E+01  1.432E-01 
2.266E+02   3.289E+01  1.417E-01 
2.296E+02   3.302E+01  1.403E-01 
2.326E+02   3.315E+01  1.388E-01 
2.356E+02   3.328E+01  1.374E-01 
2.387E+02   3.341E+01  1.359E-01 
2.418E+02   3.353E+01  1.345E-01 
2.449E+02   3.366E+01  1.331E-01 
2.481E+02   3.378E+01  1.317E-01 
2.513E+02   3.390E+01  1.304E-01 
2.546E+02   3.403E+01  1.290E-01 
2.579E+02   3.415E+01  1.277E-01 
2.612E+02   3.427E+01  1.263E-01 
2.646E+02   3.439E+01  1.250E-01 
2.681E+02   3.451E+01  1.237E-01 
2.716E+02   3.462E+01  1.224E-01 
2.751E+02   3.474E+01  1.212E-01 
2.787E+02   3.485E+01  1.199E-01 
2.823E+02   3.497E+01  1.186E-01 
2.859E+02   3.508E+01  1.174E-01 
2.897E+02   3.519E+01  1.162E-01 
2.934E+02   3.530E+01  1.150E-01 
2.972E+02   3.541E+01  1.138E-01 
3.011E+02   3.551E+01  1.126E-01 
3.050E+02   3.562E+01  1.114E-01 
3.090E+02   3.572E+01  1.102E-01 
3.130E+02   3.582E+01  1.091E-01 
3.171E+02   3.593E+01  1.079E-01 
3.212E+02   3.602E+01  1.068E-01 
3.254E+02   3.612E+01  1.057E-01 
3.296E+02   3.622E+01  1.045E-01 
3.339E+02   3.631E+01  1.034E-01 
3.382E+02   3.641E+01  1.024E-01 
3.426E+02   3.650E+01  1.013E-01 
3.471E+02   3.659E+01  1.002E-01 
3.516E+02   3.667E+01  9.915E-02 
3.561E+02   3.676E+01  9.811E-02 
3.608E+02   3.684E+01  9.707E-02 
3.655E+02   3.693E+01  9.605E-02 
3.702E+02   3.701E+01  9.503E-02 
3.750E+02   3.709E+01  9.403E-02 
3.799E+02   3.716E+01  9.304E-02 
3.848E+02   3.724E+01  9.205E-02 
3.898E+02   3.731E+01  9.108E-02 
3.949E+02   3.738E+01  9.011E-02 
4.000E+02   3.745E+01  8.916E-02 
4.052E+02   3.752E+01  8.821E-02 
4.105E+02   3.758E+01  8.728E-02 
4.158E+02   3.764E+01  8.635E-02 
4.212E+02   3.770E+01  8.543E-02 
4.267E+02   3.776E+01  8.453E-02 
4.323E+02   3.782E+01  8.363E-02 
4.379E+02   3.787E+01  8.274E-02 
4.436E+02   3.792E+01  8.186E-02 
4.493E+02   3.797E+01  8.099E-02 
4.552E+02   3.802E+01  8.013E-02 
4.611E+02   3.806E+01  7.927E-02 
4.671E+02   3.811E+01  7.843E-02 
4.731E+02   3.815E+01  7.759E-02 
4.793E+02   3.818E+01  7.677E-02 
4.855E+02   3.822E+01  7.595E-02 
4.918E+02   3.825E+01  7.514E-02 
4.982E+02   3.828E+01  7.434E-02 
5.047E+02   3.831E+01  7.354E-02 
5.113E+02   3.834E+01  7.276E-02 
5.179E+02   3.836E+01  7.198E-02 
5.246E+02   3.838E+01  7.121E-02 
5.315E+02   3.840E+01  7.045E-02 
5.384E+02   3.841E+01  6.969E-02 
5.454E+02   3.843E+01  6.895E-02 
5.524E+02   3.844E+01  6.821E-02 
5.596E+02   3.845E+01  6.748E-02 
5.669E+02   3.845E+01  6.675E-02 
5.743E+02   3.845E+01  6.604E-02 
5.817E+02   3.845E+01  6.533E-02 
5.893E+02   3.845E+01  6.463E-02 
5.969E+02   3.845E+01  6.393E-02 
6.047E+02   3.844E+01  6.324E-02 
6.126E+02   3.843E+01  6.257E-02 
6.205E+02   3.842E+01  6.189E-02 
6.286E+02   3.840E+01  6.123E-02 
6.368E+02   3.838E+01  6.057E-02 
6.450E+02   3.836E+01  5.992E-02 
6.534E+02   3.834E+01  5.927E-02 
6.619E+02   3.832E+01  5.863E-02 
6.705E+02   3.829E+01  5.800E-02 
6.792E+02   3.826E+01  5.737E-02 
6.881E+02   3.822E+01  5.675E-02 
6.970E+02   3.819E+01  5.614E-02 
7.061E+02   3.815E+01  5.554E-02 
7.152E+02   3.811E+01  5.494E-02 
7.245E+02   3.806E+01  5.434E-02 
7.339E+02   3.802E+01  5.376E-02 
7.435E+02   3.797E+01  5.317E-02 
7.531E+02   3.791E+01  5.260E-02 
7.629E+02   3.786E+01  5.203E-02 
7.728E+02   3.780E+01  5.147E-02 
7.829E+02   3.774E+01  5.091E-02 
7.931E+02   3.768E+01  5.036E-02 
8.034E+02   3.762E+01  4.981E-02 
8.138E+02   3.755E+01  4.927E-02 
8.244E+02   3.748E+01  4.874E-02 
8.351E+02   3.741E+01  4.821E-02 
8.460E+02   3.733E+01  4.769E-02 
8.570E+02   3.726E+01  4.717E-02 
8.681E+02   3.718E+01  4.666E-02 
8.794E+02   3.709E+01  4.615E-02 
8.908E+02   3.701E+01  4.565E-02 
9.024E+02   3.692E+01  4.515E-02 
9.141E+02   3.683E+01  4.466E-02 
9.260E+02   3.674E+01  4.417E-02 
9.380E+02   3.665E+01  4.369E-02 
9.502E+02   3.655E+01  4.322E-02 
9.626E+02   3.645E+01  4.275E-02 
9.751E+02   3.635E+01  4.228E-02 
9.877E+02   3.625E+01  4.182E-02 
1.001E+03   3.614E+01  4.136E-02 
1.014E+03   3.604E+01  4.091E-02 
1.027E+03   3.593E+01  4.047E-02 
1.040E+03   3.582E+01  4.002E-02 
1.054E+03   3.570E+01  3.959E-02 
1.067E+03   3.559E+01  3.915E-02 
1.081E+03   3.547E+01  3.873E-02 
1.095E+03   3.535E+01  3.830E-02 
1.109E+03   3.523E+01  3.788E-02 
1.124E+03   3.510E+01  3.747E-02 
1.138E+03   3.498E+01  3.706E-02 
1.153E+03   3.485E+01  3.666E-02 
1.168E+03   3.472E+01  3.625E-02 
1.183E+03   3.459E+01  3.586E-02 
1.199E+03   3.445E+01  3.546E-02 
1.214E+03   3.432E+01  3.508E-02 
1.230E+03   3.418E+01  3.469E-02 
1.246E+03   3.404E+01  3.431E-02 
1.262E+03   3.390E+01  3.393E-02 
1.279E+03   3.376E+01  3.356E-02 
1.295E+03   3.362E+01  3.319E-02 
1.312E+03   3.347E+01  3.283E-02 
1.329E+03   3.333E+01  3.247E-02 
1.347E+03   3.318E+01  3.211E-02 
1.364E+03   3.303E+01  3.176E-02 
1.382E+03   3.288E+01  3.141E-02 
1.400E+03   3.273E+01  3.106E-02 
1.418E+03   3.257E+01  3.072E-02 
1.436E+03   3.242E+01  3.038E-02 
1.455E+03   3.226E+01  3.005E-02 
1.474E+03   3.210E+01  2.972E-02 
1.493E+03   3.195E+01  2.939E-02 
1.513E+03   3.179E+01  2.907E-02 
1.532E+03   3.162E+01  2.875E-02 
1.552E+03   3.146E+01  2.843E-02 
1.572E+03   3.130E+01  2.812E-02 
1.593E+03   3.114E+01  2.781E-02 
1.613E+03   3.097E+01  2.750E-02 
1.634E+03   3.080E+01  2.720E-02 
1.656E+03   3.064E+01  2.690E-02 
1.677E+03   3.047E+01  2.660E-02 
1.699E+03   3.030E+01  2.631E-02 
1.721E+03   3.013E+01  2.602E-02 
1.743E+03   2.996E+01  2.573E-02 
1.766E+03   2.979E+01  2.544E-02 
1.789E+03   2.962E+01  2.516E-02 
1.812E+03   2.945E+01  2.488E-02 
1.836E+03   2.927E+01  2.461E-02 
1.860E+03   2.910E+01  2.434E-02 
