Ion = Helium      . Mass = 4.0026
Tgt =  O (Solid). Density = 1.426 g/cm3
Stopping Units =  eV/(1E15 atoms/cm2)
Energy(keV)  S(Elec)    S(Nuc)
1.000E+00   2.190E+00  3.854E+00 
1.013E+00   2.204E+00  3.848E+00 
1.026E+00   2.218E+00  3.842E+00 
1.039E+00   2.233E+00  3.836E+00 
1.053E+00   2.247E+00  3.830E+00 
1.067E+00   2.262E+00  3.823E+00 
1.081E+00   2.276E+00  3.817E+00 
1.095E+00   2.291E+00  3.810E+00 
1.109E+00   2.306E+00  3.804E+00 
1.123E+00   2.321E+00  3.797E+00 
1.138E+00   2.336E+00  3.790E+00 
1.153E+00   2.351E+00  3.783E+00 
1.168E+00   2.366E+00  3.776E+00 
1.183E+00   2.382E+00  3.768E+00 
1.198E+00   2.397E+00  3.761E+00 
1.214E+00   2.413E+00  3.753E+00 
1.229E+00   2.428E+00  3.746E+00 
1.245E+00   2.444E+00  3.738E+00 
1.262E+00   2.460E+00  3.730E+00 
1.278E+00   2.476E+00  3.722E+00 
1.295E+00   2.492E+00  3.714E+00 
1.311E+00   2.508E+00  3.705E+00 
1.329E+00   2.524E+00  3.697E+00 
1.346E+00   2.540E+00  3.689E+00 
1.363E+00   2.557E+00  3.680E+00 
1.381E+00   2.574E+00  3.671E+00 
1.399E+00   2.590E+00  3.662E+00 
1.417E+00   2.607E+00  3.653E+00 
1.436E+00   2.624E+00  3.644E+00 
1.454E+00   2.641E+00  3.635E+00 
1.473E+00   2.658E+00  3.626E+00 
1.492E+00   2.675E+00  3.616E+00 
1.512E+00   2.692E+00  3.607E+00 
1.531E+00   2.710E+00  3.597E+00 
1.551E+00   2.727E+00  3.588E+00 
1.571E+00   2.745E+00  3.578E+00 
1.592E+00   2.763E+00  3.568E+00 
1.612E+00   2.781E+00  3.558E+00 
1.633E+00   2.799E+00  3.548E+00 
1.655E+00   2.817E+00  3.538E+00 
1.676E+00   2.835E+00  3.527E+00 
1.698E+00   2.854E+00  3.517E+00 
1.720E+00   2.872E+00  3.506E+00 
1.742E+00   2.891E+00  3.496E+00 
1.765E+00   2.909E+00  3.485E+00 
1.788E+00   2.928E+00  3.474E+00 
1.811E+00   2.947E+00  3.463E+00 
1.835E+00   2.966E+00  3.453E+00 
1.859E+00   2.986E+00  3.441E+00 
1.883E+00   3.005E+00  3.430E+00 
1.907E+00   3.024E+00  3.419E+00 
1.932E+00   3.044E+00  3.408E+00 
1.957E+00   3.064E+00  3.396E+00 
1.983E+00   3.083E+00  3.385E+00 
2.008E+00   3.103E+00  3.373E+00 
2.034E+00   3.124E+00  3.362E+00 
2.061E+00   3.144E+00  3.350E+00 
2.088E+00   3.164E+00  3.338E+00 
2.115E+00   3.185E+00  3.326E+00 
2.142E+00   3.205E+00  3.314E+00 
2.170E+00   3.226E+00  3.302E+00 
2.198E+00   3.247E+00  3.290E+00 
2.227E+00   3.268E+00  3.278E+00 
2.256E+00   3.289E+00  3.266E+00 
2.285E+00   3.310E+00  3.254E+00 
2.315E+00   3.332E+00  3.241E+00 
2.345E+00   3.353E+00  3.229E+00 
2.375E+00   3.375E+00  3.216E+00 
2.406E+00   3.397E+00  3.204E+00 
2.438E+00   3.419E+00  3.191E+00 
2.469E+00   3.441E+00  3.178E+00 
2.501E+00   3.464E+00  3.166E+00 
2.534E+00   3.486E+00  3.153E+00 
2.567E+00   3.509E+00  3.140E+00 
2.600E+00   3.531E+00  3.127E+00 
2.634E+00   3.554E+00  3.114E+00 
2.668E+00   3.577E+00  3.101E+00 
2.703E+00   3.600E+00  3.088E+00 
2.738E+00   3.624E+00  3.075E+00 
2.773E+00   3.647E+00  3.062E+00 
2.810E+00   3.671E+00  3.049E+00 
2.846E+00   3.695E+00  3.035E+00 
2.883E+00   3.718E+00  3.022E+00 
2.921E+00   3.743E+00  3.009E+00 
2.958E+00   3.767E+00  2.995E+00 
2.997E+00   3.791E+00  2.982E+00 
3.036E+00   3.816E+00  2.968E+00 
3.075E+00   3.840E+00  2.955E+00 
3.115E+00   3.865E+00  2.941E+00 
3.156E+00   3.890E+00  2.928E+00 
3.197E+00   3.916E+00  2.914E+00 
3.238E+00   3.941E+00  2.900E+00 
3.280E+00   3.966E+00  2.887E+00 
3.323E+00   3.992E+00  2.873E+00 
3.366E+00   4.018E+00  2.859E+00 
3.410E+00   4.044E+00  2.846E+00 
3.454E+00   4.070E+00  2.832E+00 
3.499E+00   4.097E+00  2.818E+00 
3.545E+00   4.123E+00  2.804E+00 
3.591E+00   4.150E+00  2.790E+00 
3.637E+00   4.177E+00  2.776E+00 
3.685E+00   4.204E+00  2.762E+00 
3.733E+00   4.231E+00  2.749E+00 
3.781E+00   4.258E+00  2.735E+00 
3.830E+00   4.286E+00  2.721E+00 
3.880E+00   4.314E+00  2.707E+00 
3.930E+00   4.342E+00  2.693E+00 
3.982E+00   4.370E+00  2.679E+00 
4.033E+00   4.398E+00  2.665E+00 
4.086E+00   4.427E+00  2.651E+00 
4.139E+00   4.455E+00  2.637E+00 
4.193E+00   4.484E+00  2.623E+00 
4.247E+00   4.513E+00  2.609E+00 
4.302E+00   4.542E+00  2.595E+00 
4.358E+00   4.572E+00  2.581E+00 
4.415E+00   4.602E+00  2.566E+00 
4.472E+00   4.631E+00  2.552E+00 
4.530E+00   4.661E+00  2.538E+00 
4.589E+00   4.692E+00  2.524E+00 
4.649E+00   4.722E+00  2.510E+00 
4.709E+00   4.753E+00  2.496E+00 
4.770E+00   4.783E+00  2.482E+00 
4.832E+00   4.814E+00  2.468E+00 
4.895E+00   4.845E+00  2.454E+00 
4.959E+00   4.877E+00  2.440E+00 
5.023E+00   4.908E+00  2.426E+00 
5.089E+00   4.940E+00  2.412E+00 
5.155E+00   4.972E+00  2.398E+00 
5.222E+00   5.004E+00  2.384E+00 
5.290E+00   5.037E+00  2.370E+00 
5.358E+00   5.070E+00  2.356E+00 
5.428E+00   5.102E+00  2.342E+00 
5.499E+00   5.135E+00  2.328E+00 
5.570E+00   5.169E+00  2.314E+00 
5.642E+00   5.202E+00  2.301E+00 
5.716E+00   5.236E+00  2.287E+00 
5.790E+00   5.270E+00  2.273E+00 
5.865E+00   5.304E+00  2.259E+00 
5.942E+00   5.338E+00  2.245E+00 
6.019E+00   5.373E+00  2.231E+00 
6.097E+00   5.408E+00  2.218E+00 
6.176E+00   5.443E+00  2.204E+00 
6.256E+00   5.478E+00  2.190E+00 
6.338E+00   5.513E+00  2.177E+00 
6.420E+00   5.549E+00  2.163E+00 
6.504E+00   5.585E+00  2.149E+00 
6.588E+00   5.621E+00  2.136E+00 
6.674E+00   5.658E+00  2.122E+00 
6.760E+00   5.694E+00  2.109E+00 
6.848E+00   5.731E+00  2.095E+00 
6.937E+00   5.768E+00  2.082E+00 
7.027E+00   5.806E+00  2.068E+00 
7.119E+00   5.843E+00  2.055E+00 
7.211E+00   5.881E+00  2.041E+00 
7.305E+00   5.919E+00  2.028E+00 
7.400E+00   5.958E+00  2.015E+00 
7.496E+00   5.996E+00  2.001E+00 
7.594E+00   6.035E+00  1.988E+00 
7.692E+00   6.074E+00  1.975E+00 
7.792E+00   6.114E+00  1.962E+00 
7.894E+00   6.153E+00  1.949E+00 
7.996E+00   6.193E+00  1.936E+00 
8.100E+00   6.233E+00  1.922E+00 
8.205E+00   6.274E+00  1.909E+00 
8.312E+00   6.315E+00  1.896E+00 
8.420E+00   6.356E+00  1.884E+00 
8.529E+00   6.397E+00  1.871E+00 
8.640E+00   6.439E+00  1.858E+00 
8.753E+00   6.481E+00  1.845E+00 
8.866E+00   6.523E+00  1.832E+00 
8.982E+00   6.565E+00  1.820E+00 
9.098E+00   6.608E+00  1.807E+00 
9.217E+00   6.651E+00  1.794E+00 
9.336E+00   6.694E+00  1.782E+00 
9.458E+00   6.738E+00  1.769E+00 
9.581E+00   6.782E+00  1.757E+00 
9.705E+00   6.826E+00  1.744E+00 
9.831E+00   6.870E+00  1.732E+00 
9.959E+00   6.915E+00  1.720E+00 
1.009E+01   6.960E+00  1.707E+00 
1.022E+01   7.006E+00  1.695E+00 
1.035E+01   7.051E+00  1.683E+00 
1.049E+01   7.097E+00  1.671E+00 
1.062E+01   7.143E+00  1.659E+00 
1.076E+01   7.190E+00  1.646E+00 
1.090E+01   7.237E+00  1.634E+00 
1.104E+01   7.284E+00  1.623E+00 
1.119E+01   7.331E+00  1.611E+00 
1.133E+01   7.379E+00  1.599E+00 
1.148E+01   7.427E+00  1.587E+00 
1.163E+01   7.476E+00  1.575E+00 
1.178E+01   7.524E+00  1.564E+00 
1.193E+01   7.573E+00  1.552E+00 
1.209E+01   7.623E+00  1.540E+00 
1.224E+01   7.672E+00  1.529E+00 
1.240E+01   7.722E+00  1.517E+00 
1.256E+01   7.773E+00  1.506E+00 
1.273E+01   7.823E+00  1.495E+00 
1.289E+01   7.874E+00  1.483E+00 
1.306E+01   7.926E+00  1.472E+00 
1.323E+01   7.977E+00  1.461E+00 
1.340E+01   8.029E+00  1.450E+00 
1.358E+01   8.081E+00  1.439E+00 
1.375E+01   8.134E+00  1.428E+00 
1.393E+01   8.187E+00  1.417E+00 
1.411E+01   8.241E+00  1.406E+00 
1.430E+01   8.294E+00  1.395E+00 
1.448E+01   8.348E+00  1.384E+00 
1.467E+01   8.403E+00  1.373E+00 
1.486E+01   8.458E+00  1.363E+00 
1.505E+01   8.513E+00  1.352E+00 
1.525E+01   8.568E+00  1.341E+00 
1.545E+01   8.624E+00  1.331E+00 
1.565E+01   8.680E+00  1.320E+00 
1.585E+01   8.737E+00  1.310E+00 
1.606E+01   8.794E+00  1.300E+00 
1.627E+01   8.851E+00  1.289E+00 
1.648E+01   8.909E+00  1.279E+00 
1.669E+01   8.967E+00  1.269E+00 
1.691E+01   9.025E+00  1.259E+00 
1.713E+01   9.084E+00  1.249E+00 
1.735E+01   9.144E+00  1.239E+00 
1.758E+01   9.203E+00  1.229E+00 
1.781E+01   9.263E+00  1.219E+00 
1.804E+01   9.324E+00  1.209E+00 
1.827E+01   9.384E+00  1.199E+00 
1.851E+01   9.446E+00  1.189E+00 
1.875E+01   9.507E+00  1.180E+00 
1.899E+01   9.569E+00  1.170E+00 
1.924E+01   9.632E+00  1.161E+00 
1.949E+01   9.694E+00  1.151E+00 
1.974E+01   9.758E+00  1.142E+00 
2.000E+01   9.821E+00  1.132E+00 
2.026E+01   9.885E+00  1.123E+00 
2.052E+01   9.950E+00  1.114E+00 
2.079E+01   1.001E+01  1.105E+00 
2.106E+01   1.008E+01  1.095E+00 
2.133E+01   1.015E+01  1.086E+00 
2.161E+01   1.021E+01  1.077E+00 
2.189E+01   1.028E+01  1.068E+00 
2.218E+01   1.035E+01  1.059E+00 
2.247E+01   1.041E+01  1.051E+00 
2.276E+01   1.048E+01  1.042E+00 
2.305E+01   1.055E+01  1.033E+00 
2.335E+01   1.062E+01  1.024E+00 
2.366E+01   1.069E+01  1.016E+00 
2.396E+01   1.076E+01  1.007E+00 
2.428E+01   1.083E+01  9.985E-01 
2.459E+01   1.090E+01  9.900E-01 
2.491E+01   1.097E+01  9.816E-01 
2.523E+01   1.104E+01  9.733E-01 
2.556E+01   1.111E+01  9.650E-01 
2.589E+01   1.119E+01  9.567E-01 
2.623E+01   1.126E+01  9.485E-01 
2.657E+01   1.133E+01  9.404E-01 
2.692E+01   1.141E+01  9.323E-01 
2.727E+01   1.148E+01  9.243E-01 
2.762E+01   1.156E+01  9.163E-01 
2.798E+01   1.163E+01  9.084E-01 
2.834E+01   1.171E+01  9.006E-01 
2.871E+01   1.178E+01  8.928E-01 
2.909E+01   1.186E+01  8.850E-01 
2.946E+01   1.194E+01  8.773E-01 
2.985E+01   1.201E+01  8.697E-01 
3.023E+01   1.209E+01  8.621E-01 
3.063E+01   1.217E+01  8.545E-01 
3.103E+01   1.225E+01  8.471E-01 
3.143E+01   1.233E+01  8.396E-01 
3.184E+01   1.241E+01  8.322E-01 
3.225E+01   1.249E+01  8.249E-01 
3.267E+01   1.257E+01  8.177E-01 
3.309E+01   1.266E+01  8.104E-01 
3.352E+01   1.274E+01  8.033E-01 
3.396E+01   1.282E+01  7.962E-01 
3.440E+01   1.291E+01  7.891E-01 
3.485E+01   1.299E+01  7.821E-01 
3.530E+01   1.307E+01  7.751E-01 
3.576E+01   1.316E+01  7.682E-01 
3.623E+01   1.325E+01  7.614E-01 
3.670E+01   1.333E+01  7.546E-01 
3.717E+01   1.342E+01  7.478E-01 
3.766E+01   1.351E+01  7.411E-01 
3.815E+01   1.359E+01  7.344E-01 
3.864E+01   1.368E+01  7.278E-01 
3.914E+01   1.377E+01  7.213E-01 
3.965E+01   1.386E+01  7.148E-01 
4.017E+01   1.395E+01  7.083E-01 
4.069E+01   1.404E+01  7.019E-01 
4.122E+01   1.413E+01  6.956E-01 
4.175E+01   1.423E+01  6.893E-01 
4.230E+01   1.432E+01  6.830E-01 
4.285E+01   1.441E+01  6.768E-01 
4.340E+01   1.451E+01  6.706E-01 
4.397E+01   1.460E+01  6.645E-01 
4.454E+01   1.470E+01  6.584E-01 
4.512E+01   1.479E+01  6.524E-01 
4.570E+01   1.489E+01  6.464E-01 
4.630E+01   1.499E+01  6.405E-01 
4.690E+01   1.508E+01  6.346E-01 
4.751E+01   1.518E+01  6.288E-01 
4.813E+01   1.528E+01  6.230E-01 
4.875E+01   1.538E+01  6.173E-01 
4.939E+01   1.548E+01  6.116E-01 
5.003E+01   1.558E+01  6.059E-01 
5.068E+01   1.568E+01  6.003E-01 
5.134E+01   1.578E+01  5.947E-01 
5.200E+01   1.589E+01  5.467E-01 
5.268E+01   1.599E+01  5.417E-01 
5.336E+01   1.609E+01  5.368E-01 
5.406E+01   1.620E+01  5.319E-01 
5.476E+01   1.630E+01  5.270E-01 
5.547E+01   1.641E+01  5.222E-01 
5.619E+01   1.651E+01  5.174E-01 
5.692E+01   1.662E+01  5.127E-01 
5.766E+01   1.673E+01  5.080E-01 
5.841E+01   1.684E+01  5.033E-01 
5.917E+01   1.695E+01  4.986E-01 
5.994E+01   1.706E+01  4.940E-01 
6.072E+01   1.717E+01  4.895E-01 
6.151E+01   1.728E+01  4.849E-01 
6.231E+01   1.739E+01  4.805E-01 
6.312E+01   1.750E+01  4.760E-01 
6.394E+01   1.762E+01  4.716E-01 
6.477E+01   1.773E+01  4.672E-01 
6.561E+01   1.785E+01  4.628E-01 
6.646E+01   1.796E+01  4.585E-01 
6.733E+01   1.808E+01  4.542E-01 
6.820E+01   1.820E+01  4.500E-01 
6.909E+01   1.831E+01  4.458E-01 
6.999E+01   1.843E+01  4.416E-01 
7.090E+01   1.855E+01  4.374E-01 
7.182E+01   1.867E+01  4.333E-01 
7.275E+01   1.879E+01  4.292E-01 
7.370E+01   1.891E+01  4.252E-01 
7.465E+01   1.903E+01  4.212E-01 
7.562E+01   1.916E+01  4.172E-01 
7.661E+01   1.928E+01  4.132E-01 
7.760E+01   1.940E+01  4.093E-01 
7.861E+01   1.953E+01  4.054E-01 
7.963E+01   1.965E+01  4.016E-01 
8.067E+01   1.978E+01  3.978E-01 
8.172E+01   1.991E+01  3.940E-01 
8.278E+01   2.004E+01  3.902E-01 
8.385E+01   2.017E+01  3.865E-01 
8.494E+01   2.029E+01  3.828E-01 
8.605E+01   2.042E+01  3.791E-01 
8.717E+01   2.056E+01  3.755E-01 
8.830E+01   2.069E+01  3.719E-01 
8.945E+01   2.082E+01  3.683E-01 
9.061E+01   2.095E+01  3.648E-01 
9.179E+01   2.109E+01  3.613E-01 
9.298E+01   2.122E+01  3.578E-01 
9.419E+01   2.136E+01  3.544E-01 
9.541E+01   2.149E+01  3.510E-01 
9.665E+01   2.163E+01  3.476E-01 
9.791E+01   2.177E+01  3.442E-01 
9.918E+01   2.191E+01  3.409E-01 
1.005E+02   2.205E+01  3.376E-01 
1.018E+02   2.219E+01  3.343E-01 
1.031E+02   2.233E+01  3.311E-01 
1.044E+02   2.247E+01  3.278E-01 
1.058E+02   2.261E+01  3.246E-01 
1.072E+02   2.276E+01  3.215E-01 
1.086E+02   2.290E+01  3.183E-01 
1.100E+02   2.305E+01  3.152E-01 
1.114E+02   2.319E+01  3.122E-01 
1.129E+02   2.334E+01  3.091E-01 
1.143E+02   2.348E+01  3.061E-01 
1.158E+02   2.363E+01  3.031E-01 
1.173E+02   2.378E+01  3.001E-01 
1.188E+02   2.393E+01  2.972E-01 
1.204E+02   2.408E+01  2.943E-01 
1.219E+02   2.423E+01  2.914E-01 
1.235E+02   2.438E+01  2.885E-01 
1.251E+02   2.454E+01  2.857E-01 
1.268E+02   2.469E+01  2.828E-01 
1.284E+02   2.484E+01  2.800E-01 
1.301E+02   2.500E+01  2.773E-01 
1.318E+02   2.515E+01  2.745E-01 
1.335E+02   2.531E+01  2.718E-01 
1.352E+02   2.547E+01  2.691E-01 
1.370E+02   2.563E+01  2.665E-01 
1.388E+02   2.578E+01  2.638E-01 
1.406E+02   2.594E+01  2.612E-01 
1.424E+02   2.610E+01  2.586E-01 
1.442E+02   2.627E+01  2.560E-01 
1.461E+02   2.643E+01  2.535E-01 
1.480E+02   2.659E+01  2.510E-01 
1.499E+02   2.675E+01  2.485E-01 
1.519E+02   2.692E+01  2.460E-01 
1.539E+02   2.708E+01  2.435E-01 
1.559E+02   2.725E+01  2.411E-01 
1.579E+02   2.741E+01  2.387E-01 
1.599E+02   2.758E+01  2.363E-01 
1.620E+02   2.774E+01  2.339E-01 
1.641E+02   2.791E+01  2.316E-01 
1.662E+02   2.808E+01  2.292E-01 
1.684E+02   2.825E+01  2.269E-01 
1.706E+02   2.842E+01  2.247E-01 
1.728E+02   2.859E+01  2.224E-01 
1.751E+02   2.876E+01  2.202E-01 
1.773E+02   2.893E+01  2.179E-01 
1.796E+02   2.910E+01  2.157E-01 
1.820E+02   2.928E+01  2.136E-01 
1.843E+02   2.945E+01  2.114E-01 
1.867E+02   2.962E+01  2.093E-01 
1.892E+02   2.980E+01  2.072E-01 
1.916E+02   2.997E+01  2.051E-01 
1.941E+02   3.015E+01  2.030E-01 
1.966E+02   3.033E+01  2.009E-01 
1.992E+02   3.050E+01  1.989E-01 
2.018E+02   3.068E+01  1.969E-01 
2.044E+02   3.086E+01  1.949E-01 
2.071E+02   3.103E+01  1.929E-01 
2.097E+02   3.121E+01  1.909E-01 
2.125E+02   3.139E+01  1.890E-01 
2.152E+02   3.157E+01  1.871E-01 
2.180E+02   3.175E+01  1.852E-01 
2.209E+02   3.193E+01  1.833E-01 
2.237E+02   3.211E+01  1.814E-01 
2.266E+02   3.229E+01  1.795E-01 
2.296E+02   3.247E+01  1.777E-01 
2.326E+02   3.265E+01  1.759E-01 
2.356E+02   3.283E+01  1.741E-01 
2.387E+02   3.301E+01  1.723E-01 
2.418E+02   3.319E+01  1.705E-01 
2.449E+02   3.338E+01  1.688E-01 
2.481E+02   3.356E+01  1.671E-01 
2.513E+02   3.374E+01  1.653E-01 
2.546E+02   3.392E+01  1.636E-01 
2.579E+02   3.410E+01  1.620E-01 
2.612E+02   3.428E+01  1.603E-01 
2.646E+02   3.447E+01  1.587E-01 
2.681E+02   3.465E+01  1.570E-01 
2.716E+02   3.483E+01  1.554E-01 
2.751E+02   3.501E+01  1.538E-01 
2.787E+02   3.519E+01  1.522E-01 
2.823E+02   3.537E+01  1.506E-01 
2.859E+02   3.555E+01  1.491E-01 
2.897E+02   3.573E+01  1.475E-01 
2.934E+02   3.591E+01  1.460E-01 
2.972E+02   3.609E+01  1.445E-01 
3.011E+02   3.627E+01  1.430E-01 
3.050E+02   3.645E+01  1.415E-01 
3.090E+02   3.663E+01  1.401E-01 
3.130E+02   3.681E+01  1.386E-01 
3.171E+02   3.699E+01  1.372E-01 
3.212E+02   3.716E+01  1.357E-01 
3.254E+02   3.734E+01  1.343E-01 
3.296E+02   3.751E+01  1.329E-01 
3.339E+02   3.769E+01  1.315E-01 
3.382E+02   3.786E+01  1.302E-01 
3.426E+02   3.804E+01  1.288E-01 
3.471E+02   3.821E+01  1.275E-01 
3.516E+02   3.838E+01  1.261E-01 
3.561E+02   3.855E+01  1.248E-01 
3.608E+02   3.872E+01  1.235E-01 
3.655E+02   3.889E+01  1.222E-01 
3.702E+02   3.905E+01  1.210E-01 
3.750E+02   3.922E+01  1.197E-01 
3.799E+02   3.938E+01  1.184E-01 
3.848E+02   3.955E+01  1.172E-01 
3.898E+02   3.971E+01  1.160E-01 
3.949E+02   3.987E+01  1.148E-01 
4.000E+02   4.003E+01  1.136E-01 
4.052E+02   4.018E+01  1.124E-01 
4.105E+02   4.034E+01  1.112E-01 
4.158E+02   4.049E+01  1.100E-01 
4.212E+02   4.064E+01  1.089E-01 
4.267E+02   4.079E+01  1.077E-01 
4.323E+02   4.094E+01  1.066E-01 
4.379E+02   4.108E+01  1.055E-01 
4.436E+02   4.123E+01  1.044E-01 
4.493E+02   4.137E+01  1.033E-01 
4.552E+02   4.151E+01  1.022E-01 
4.611E+02   4.165E+01  1.011E-01 
4.671E+02   4.178E+01  1.000E-01 
4.731E+02   4.191E+01  9.896E-02 
4.793E+02   4.204E+01  9.792E-02 
4.855E+02   4.217E+01  9.688E-02 
4.918E+02   4.230E+01  9.586E-02 
4.982E+02   4.242E+01  9.484E-02 
5.047E+02   4.254E+01  9.384E-02 
5.113E+02   4.265E+01  9.285E-02 
5.179E+02   4.277E+01  9.186E-02 
5.246E+02   4.288E+01  9.089E-02 
5.315E+02   4.298E+01  8.993E-02 
5.384E+02   4.309E+01  8.897E-02 
5.454E+02   4.319E+01  8.803E-02 
5.524E+02   4.329E+01  8.709E-02 
5.596E+02   4.338E+01  8.617E-02 
5.669E+02   4.347E+01  8.525E-02 
5.743E+02   4.356E+01  8.435E-02 
5.817E+02   4.365E+01  8.345E-02 
5.893E+02   4.373E+01  8.256E-02 
5.969E+02   4.380E+01  8.168E-02 
6.047E+02   4.388E+01  8.081E-02 
6.126E+02   4.395E+01  7.995E-02 
6.205E+02   4.401E+01  7.910E-02 
6.286E+02   4.408E+01  7.825E-02 
6.368E+02   4.413E+01  7.742E-02 
6.450E+02   4.419E+01  7.659E-02 
6.534E+02   4.424E+01  7.577E-02 
6.619E+02   4.429E+01  7.497E-02 
6.705E+02   4.433E+01  7.416E-02 
6.792E+02   4.437E+01  7.337E-02 
6.881E+02   4.440E+01  7.259E-02 
6.970E+02   4.443E+01  7.181E-02 
7.061E+02   4.445E+01  7.104E-02 
7.152E+02   4.447E+01  7.028E-02 
7.245E+02   4.449E+01  6.953E-02 
7.339E+02   4.450E+01  6.878E-02 
7.435E+02   4.451E+01  6.804E-02 
7.531E+02   4.451E+01  6.731E-02 
7.629E+02   4.451E+01  6.659E-02 
7.728E+02   4.451E+01  6.587E-02 
7.829E+02   4.450E+01  6.517E-02 
7.931E+02   4.448E+01  6.447E-02 
8.034E+02   4.446E+01  6.377E-02 
8.138E+02   4.444E+01  6.309E-02 
8.244E+02   4.441E+01  6.241E-02 
8.351E+02   4.438E+01  6.174E-02 
8.460E+02   4.434E+01  6.107E-02 
8.570E+02   4.430E+01  6.041E-02 
8.681E+02   4.425E+01  5.976E-02 
8.794E+02   4.420E+01  5.912E-02 
8.908E+02   4.414E+01  5.848E-02 
9.024E+02   4.409E+01  5.785E-02 
9.141E+02   4.402E+01  5.722E-02 
9.260E+02   4.395E+01  5.661E-02 
9.380E+02   4.388E+01  5.599E-02 
9.502E+02   4.380E+01  5.539E-02 
9.626E+02   4.372E+01  5.479E-02 
9.751E+02   4.363E+01  5.420E-02 
9.877E+02   4.354E+01  5.361E-02 
1.001E+03   4.345E+01  5.303E-02 
1.014E+03   4.335E+01  5.246E-02 
1.027E+03   4.325E+01  5.189E-02 
1.040E+03   4.314E+01  5.133E-02 
1.054E+03   4.303E+01  5.077E-02 
1.067E+03   4.291E+01  5.022E-02 
1.081E+03   4.279E+01  4.967E-02 
1.095E+03   4.267E+01  4.914E-02 
1.109E+03   4.255E+01  4.860E-02 
1.124E+03   4.242E+01  4.807E-02 
1.138E+03   4.228E+01  4.755E-02 
1.153E+03   4.215E+01  4.704E-02 
1.168E+03   4.200E+01  4.652E-02 
1.183E+03   4.186E+01  4.602E-02 
1.199E+03   4.171E+01  4.552E-02 
1.214E+03   4.156E+01  4.502E-02 
1.230E+03   4.141E+01  4.453E-02 
1.246E+03   4.125E+01  4.405E-02 
1.262E+03   4.109E+01  4.357E-02 
1.279E+03   4.093E+01  4.309E-02 
1.295E+03   4.076E+01  4.262E-02 
1.312E+03   4.060E+01  4.216E-02 
1.329E+03   4.043E+01  4.170E-02 
1.347E+03   4.025E+01  4.124E-02 
1.364E+03   4.008E+01  4.079E-02 
1.382E+03   3.990E+01  4.035E-02 
1.400E+03   3.972E+01  3.991E-02 
1.418E+03   3.953E+01  3.947E-02 
1.436E+03   3.935E+01  3.904E-02 
1.455E+03   3.916E+01  3.861E-02 
1.474E+03   3.897E+01  3.819E-02 
1.493E+03   3.878E+01  3.777E-02 
1.513E+03   3.859E+01  3.736E-02 
1.532E+03   3.839E+01  3.695E-02 
1.552E+03   3.820E+01  3.654E-02 
1.572E+03   3.800E+01  3.614E-02 
1.593E+03   3.780E+01  3.575E-02 
1.613E+03   3.760E+01  3.535E-02 
1.634E+03   3.740E+01  3.497E-02 
1.656E+03   3.719E+01  3.458E-02 
1.677E+03   3.699E+01  3.420E-02 
1.699E+03   3.678E+01  3.383E-02 
1.721E+03   3.657E+01  3.346E-02 
1.743E+03   3.636E+01  3.309E-02 
1.766E+03   3.615E+01  3.273E-02 
1.789E+03   3.594E+01  3.237E-02 
1.812E+03   3.573E+01  3.201E-02 
1.836E+03   3.552E+01  3.166E-02 
1.860E+03   3.531E+01  3.131E-02 
