Ion = Hydrogen    . Mass = 1.0079
Tgt = Ce (Solid). Density = 6.6724 g/cm3
Stopping Units =  eV/(1E15 atoms/cm2)
Energy(keV)  S(Elec)    S(Nuc)
1.000E+00   7.998E+00  3.118E-01 
1.012E+00   8.045E+00  3.121E-01 
1.023E+00   8.091E+00  3.124E-01 
1.035E+00   8.138E+00  3.128E-01 
1.047E+00   8.185E+00  3.131E-01 
1.059E+00   8.232E+00  3.134E-01 
1.072E+00   8.280E+00  3.137E-01 
1.084E+00   8.328E+00  3.140E-01 
1.097E+00   8.376E+00  3.143E-01 
1.109E+00   8.424E+00  3.145E-01 
1.122E+00   8.473E+00  3.148E-01 
1.135E+00   8.522E+00  3.151E-01 
1.148E+00   8.571E+00  3.154E-01 
1.162E+00   8.621E+00  3.156E-01 
1.175E+00   8.671E+00  3.159E-01 
1.189E+00   8.721E+00  3.161E-01 
1.203E+00   8.771E+00  3.164E-01 
1.217E+00   8.822E+00  3.166E-01 
1.231E+00   8.873E+00  3.169E-01 
1.245E+00   8.924E+00  3.171E-01 
1.259E+00   8.976E+00  3.173E-01 
1.274E+00   9.028E+00  3.175E-01 
1.289E+00   9.080E+00  3.178E-01 
1.304E+00   9.133E+00  3.180E-01 
1.319E+00   9.185E+00  3.182E-01 
1.334E+00   9.239E+00  3.184E-01 
1.350E+00   9.292E+00  3.186E-01 
1.365E+00   9.346E+00  3.188E-01 
1.381E+00   9.400E+00  3.189E-01 
1.397E+00   9.454E+00  3.191E-01 
1.413E+00   9.509E+00  3.193E-01 
1.430E+00   9.564E+00  3.195E-01 
1.446E+00   9.619E+00  3.196E-01 
1.463E+00   9.675E+00  3.198E-01 
1.480E+00   9.731E+00  3.199E-01 
1.497E+00   9.787E+00  3.201E-01 
1.515E+00   9.844E+00  3.202E-01 
1.532E+00   9.900E+00  3.204E-01 
1.550E+00   9.958E+00  3.205E-01 
1.568E+00   1.002E+01  3.206E-01 
1.586E+00   1.007E+01  3.207E-01 
1.605E+00   1.013E+01  3.208E-01 
1.623E+00   1.019E+01  3.209E-01 
1.642E+00   1.025E+01  3.210E-01 
1.661E+00   1.031E+01  3.211E-01 
1.680E+00   1.037E+01  3.212E-01 
1.700E+00   1.043E+01  3.213E-01 
1.719E+00   1.049E+01  3.214E-01 
1.739E+00   1.055E+01  3.214E-01 
1.760E+00   1.061E+01  3.215E-01 
1.780E+00   1.067E+01  3.215E-01 
1.801E+00   1.073E+01  3.216E-01 
1.822E+00   1.079E+01  3.216E-01 
1.843E+00   1.086E+01  3.217E-01 
1.864E+00   1.092E+01  3.217E-01 
1.886E+00   1.098E+01  3.217E-01 
1.908E+00   1.105E+01  3.218E-01 
1.930E+00   1.111E+01  3.218E-01 
1.952E+00   1.117E+01  3.218E-01 
1.975E+00   1.124E+01  3.218E-01 
1.998E+00   1.130E+01  3.218E-01 
2.021E+00   1.137E+01  3.218E-01 
2.044E+00   1.142E+01  3.217E-01 
2.068E+00   1.147E+01  3.217E-01 
2.092E+00   1.153E+01  3.217E-01 
2.116E+00   1.158E+01  3.216E-01 
2.141E+00   1.164E+01  3.216E-01 
2.166E+00   1.169E+01  3.215E-01 
2.191E+00   1.175E+01  3.215E-01 
2.216E+00   1.180E+01  3.214E-01 
2.242E+00   1.186E+01  3.214E-01 
2.268E+00   1.192E+01  3.213E-01 
2.294E+00   1.197E+01  3.212E-01 
2.321E+00   1.203E+01  3.211E-01 
2.348E+00   1.209E+01  3.210E-01 
2.375E+00   1.215E+01  3.209E-01 
2.402E+00   1.220E+01  3.208E-01 
2.430E+00   1.226E+01  3.207E-01 
2.458E+00   1.232E+01  3.206E-01 
2.487E+00   1.238E+01  3.204E-01 
2.516E+00   1.244E+01  3.203E-01 
2.545E+00   1.250E+01  3.201E-01 
2.574E+00   1.256E+01  3.200E-01 
2.604E+00   1.262E+01  3.198E-01 
2.635E+00   1.268E+01  3.197E-01 
2.665E+00   1.274E+01  3.195E-01 
2.696E+00   1.281E+01  3.193E-01 
2.727E+00   1.287E+01  3.191E-01 
2.759E+00   1.293E+01  3.190E-01 
2.791E+00   1.299E+01  3.188E-01 
2.823E+00   1.306E+01  3.186E-01 
2.856E+00   1.312E+01  3.184E-01 
2.889E+00   1.319E+01  3.181E-01 
2.923E+00   1.325E+01  3.179E-01 
2.957E+00   1.332E+01  3.177E-01 
2.991E+00   1.338E+01  3.174E-01 
3.026E+00   1.345E+01  3.172E-01 
3.061E+00   1.351E+01  3.169E-01 
3.096E+00   1.358E+01  3.167E-01 
3.132E+00   1.365E+01  3.164E-01 
3.168E+00   1.371E+01  3.162E-01 
3.205E+00   1.378E+01  3.159E-01 
3.242E+00   1.385E+01  3.156E-01 
3.280E+00   1.392E+01  3.153E-01 
3.318E+00   1.399E+01  3.150E-01 
3.356E+00   1.406E+01  3.147E-01 
3.395E+00   1.413E+01  3.144E-01 
3.435E+00   1.420E+01  3.141E-01 
3.475E+00   1.427E+01  3.137E-01 
3.515E+00   1.434E+01  3.134E-01 
3.556E+00   1.441E+01  3.131E-01 
3.597E+00   1.448E+01  3.127E-01 
3.639E+00   1.455E+01  3.124E-01 
3.681E+00   1.463E+01  3.120E-01 
3.724E+00   1.470E+01  3.116E-01 
3.767E+00   1.477E+01  3.113E-01 
3.810E+00   1.485E+01  3.109E-01 
3.855E+00   1.492E+01  3.105E-01 
3.899E+00   1.500E+01  3.101E-01 
3.945E+00   1.507E+01  3.097E-01 
3.990E+00   1.515E+01  3.093E-01 
4.037E+00   1.523E+01  3.089E-01 
4.083E+00   1.530E+01  3.085E-01 
4.131E+00   1.538E+01  3.080E-01 
4.179E+00   1.546E+01  3.076E-01 
4.227E+00   1.554E+01  3.072E-01 
4.276E+00   1.562E+01  3.067E-01 
4.326E+00   1.569E+01  3.063E-01 
4.376E+00   1.577E+01  3.058E-01 
4.427E+00   1.585E+01  3.053E-01 
4.478E+00   1.594E+01  3.049E-01 
4.530E+00   1.602E+01  3.044E-01 
4.583E+00   1.610E+01  3.039E-01 
4.636E+00   1.618E+01  3.034E-01 
4.690E+00   1.626E+01  3.029E-01 
4.744E+00   1.635E+01  3.024E-01 
4.799E+00   1.643E+01  3.019E-01 
4.855E+00   1.651E+01  3.014E-01 
4.911E+00   1.660E+01  3.008E-01 
4.968E+00   1.668E+01  3.003E-01 
5.026E+00   1.677E+01  2.998E-01 
5.084E+00   1.686E+01  2.992E-01 
5.143E+00   1.694E+01  2.987E-01 
5.202E+00   1.703E+01  2.981E-01 
5.263E+00   1.712E+01  2.975E-01 
5.324E+00   1.721E+01  2.970E-01 
5.386E+00   1.730E+01  2.964E-01 
5.448E+00   1.738E+01  2.958E-01 
5.511E+00   1.747E+01  2.952E-01 
5.575E+00   1.756E+01  2.946E-01 
5.640E+00   1.766E+01  2.940E-01 
5.705E+00   1.775E+01  2.934E-01 
5.771E+00   1.784E+01  2.928E-01 
5.838E+00   1.793E+01  2.922E-01 
5.906E+00   1.803E+01  2.915E-01 
5.975E+00   1.812E+01  2.909E-01 
6.044E+00   1.821E+01  2.903E-01 
6.114E+00   1.831E+01  2.896E-01 
6.185E+00   1.840E+01  2.890E-01 
6.257E+00   1.850E+01  2.883E-01 
6.329E+00   1.860E+01  2.877E-01 
6.403E+00   1.869E+01  2.870E-01 
6.477E+00   1.879E+01  2.863E-01 
6.552E+00   1.889E+01  2.856E-01 
6.628E+00   1.899E+01  2.850E-01 
6.705E+00   1.909E+01  2.843E-01 
6.783E+00   1.919E+01  2.836E-01 
6.861E+00   1.929E+01  2.829E-01 
6.941E+00   1.939E+01  2.822E-01 
7.021E+00   1.949E+01  2.814E-01 
7.103E+00   1.959E+01  2.807E-01 
7.185E+00   1.970E+01  2.800E-01 
7.269E+00   1.980E+01  2.793E-01 
7.353E+00   1.990E+01  2.785E-01 
7.438E+00   2.001E+01  2.778E-01 
7.524E+00   2.011E+01  2.771E-01 
7.612E+00   2.022E+01  2.763E-01 
7.700E+00   2.033E+01  2.756E-01 
7.789E+00   2.043E+01  2.748E-01 
7.880E+00   2.054E+01  2.740E-01 
7.971E+00   2.065E+01  2.733E-01 
8.064E+00   2.076E+01  2.725E-01 
8.157E+00   2.087E+01  2.717E-01 
8.252E+00   2.098E+01  2.709E-01 
8.347E+00   2.109E+01  2.701E-01 
8.444E+00   2.120E+01  2.693E-01 
8.542E+00   2.132E+01  2.686E-01 
8.641E+00   2.143E+01  2.677E-01 
8.741E+00   2.154E+01  2.669E-01 
8.843E+00   2.166E+01  2.661E-01 
8.945E+00   2.177E+01  2.653E-01 
9.049E+00   2.189E+01  2.645E-01 
9.154E+00   2.200E+01  2.637E-01 
9.260E+00   2.212E+01  2.628E-01 
9.368E+00   2.224E+01  2.620E-01 
9.476E+00   2.236E+01  2.612E-01 
9.586E+00   2.247E+01  2.603E-01 
9.698E+00   2.259E+01  2.595E-01 
9.810E+00   2.271E+01  2.586E-01 
9.924E+00   2.284E+01  2.578E-01 
1.004E+01   2.296E+01  2.569E-01 
1.016E+01   2.308E+01  2.561E-01 
1.027E+01   2.320E+01  2.552E-01 
1.039E+01   2.333E+01  2.543E-01 
1.051E+01   2.345E+01  2.535E-01 
1.063E+01   2.358E+01  2.526E-01 
1.076E+01   2.370E+01  2.517E-01 
1.088E+01   2.383E+01  2.508E-01 
1.101E+01   2.395E+01  2.500E-01 
1.114E+01   2.408E+01  2.491E-01 
1.127E+01   2.421E+01  2.482E-01 
1.140E+01   2.434E+01  2.473E-01 
1.153E+01   2.447E+01  2.464E-01 
1.166E+01   2.460E+01  2.455E-01 
1.180E+01   2.473E+01  2.446E-01 
1.193E+01   2.486E+01  2.437E-01 
1.207E+01   2.500E+01  2.428E-01 
1.221E+01   2.513E+01  2.419E-01 
1.235E+01   2.527E+01  2.409E-01 
1.250E+01   2.540E+01  2.400E-01 
1.264E+01   2.554E+01  2.391E-01 
1.279E+01   2.567E+01  2.382E-01 
1.294E+01   2.581E+01  2.373E-01 
1.309E+01   2.595E+01  2.363E-01 
1.324E+01   2.609E+01  2.354E-01 
1.339E+01   2.623E+01  2.345E-01 
1.355E+01   2.637E+01  2.335E-01 
1.371E+01   2.651E+01  2.326E-01 
1.387E+01   2.665E+01  2.317E-01 
1.403E+01   2.679E+01  2.307E-01 
1.419E+01   2.693E+01  2.298E-01 
1.435E+01   2.708E+01  2.288E-01 
1.452E+01   2.722E+01  2.279E-01 
1.469E+01   2.737E+01  2.269E-01 
1.486E+01   2.751E+01  2.260E-01 
1.503E+01   2.766E+01  2.250E-01 
1.521E+01   2.781E+01  2.241E-01 
1.538E+01   2.795E+01  2.231E-01 
1.556E+01   2.810E+01  2.222E-01 
1.574E+01   2.825E+01  2.212E-01 
1.592E+01   2.840E+01  2.203E-01 
1.611E+01   2.855E+01  2.193E-01 
1.629E+01   2.871E+01  2.184E-01 
1.648E+01   2.886E+01  2.174E-01 
1.667E+01   2.901E+01  2.164E-01 
1.687E+01   2.917E+01  2.155E-01 
1.706E+01   2.932E+01  2.145E-01 
1.726E+01   2.948E+01  2.135E-01 
1.746E+01   2.963E+01  2.126E-01 
1.766E+01   2.979E+01  2.116E-01 
1.787E+01   2.995E+01  2.106E-01 
1.808E+01   3.011E+01  2.097E-01 
1.829E+01   3.027E+01  2.087E-01 
1.850E+01   3.042E+01  2.077E-01 
1.871E+01   3.059E+01  2.068E-01 
1.893E+01   3.075E+01  2.058E-01 
1.915E+01   3.091E+01  2.048E-01 
1.937E+01   3.107E+01  2.039E-01 
1.960E+01   3.123E+01  2.029E-01 
1.982E+01   3.140E+01  2.019E-01 
2.005E+01   3.156E+01  2.009E-01 
2.029E+01   3.173E+01  2.000E-01 
2.052E+01   3.190E+01  1.990E-01 
2.076E+01   3.206E+01  1.980E-01 
2.100E+01   3.223E+01  1.971E-01 
2.124E+01   3.240E+01  1.961E-01 
2.149E+01   3.257E+01  1.951E-01 
2.174E+01   3.274E+01  1.941E-01 
2.199E+01   3.291E+01  1.932E-01 
2.225E+01   3.308E+01  1.922E-01 
2.250E+01   3.325E+01  1.912E-01 
2.277E+01   3.342E+01  1.903E-01 
2.303E+01   3.359E+01  1.893E-01 
2.330E+01   3.377E+01  1.883E-01 
2.357E+01   3.394E+01  1.874E-01 
2.384E+01   3.412E+01  1.864E-01 
2.412E+01   3.429E+01  1.854E-01 
2.440E+01   3.447E+01  1.845E-01 
2.468E+01   3.464E+01  1.835E-01 
2.497E+01   3.482E+01  1.825E-01 
2.526E+01   3.500E+01  1.816E-01 
2.555E+01   3.517E+01  1.806E-01 
2.584E+01   3.535E+01  1.797E-01 
2.614E+01   3.553E+01  1.787E-01 
2.645E+01   3.571E+01  1.777E-01 
2.675E+01   3.589E+01  1.768E-01 
2.707E+01   3.607E+01  1.758E-01 
2.738E+01   3.625E+01  1.749E-01 
2.770E+01   3.644E+01  1.739E-01 
2.802E+01   3.662E+01  1.730E-01 
2.834E+01   3.680E+01  1.720E-01 
2.867E+01   3.698E+01  1.711E-01 
2.900E+01   3.717E+01  1.701E-01 
2.934E+01   3.735E+01  1.692E-01 
2.968E+01   3.753E+01  1.683E-01 
3.003E+01   3.772E+01  1.673E-01 
3.037E+01   3.790E+01  1.664E-01 
3.073E+01   3.809E+01  1.654E-01 
3.108E+01   3.827E+01  1.645E-01 
3.144E+01   3.846E+01  1.636E-01 
3.181E+01   3.865E+01  1.626E-01 
3.218E+01   3.883E+01  1.617E-01 
3.255E+01   3.902E+01  1.608E-01 
3.293E+01   3.921E+01  1.599E-01 
3.331E+01   3.939E+01  1.589E-01 
3.370E+01   3.958E+01  1.580E-01 
3.409E+01   3.977E+01  1.571E-01 
3.448E+01   3.995E+01  1.562E-01 
3.488E+01   4.014E+01  1.553E-01 
3.529E+01   4.033E+01  1.543E-01 
3.570E+01   4.052E+01  1.534E-01 
3.611E+01   4.070E+01  1.525E-01 
3.653E+01   4.089E+01  1.516E-01 
3.695E+01   4.108E+01  1.507E-01 
3.738E+01   4.127E+01  1.498E-01 
3.781E+01   4.145E+01  1.489E-01 
3.825E+01   4.164E+01  1.480E-01 
3.870E+01   4.183E+01  1.471E-01 
3.915E+01   4.201E+01  1.462E-01 
3.960E+01   4.220E+01  1.453E-01 
4.006E+01   4.239E+01  1.445E-01 
4.052E+01   4.257E+01  1.436E-01 
4.099E+01   4.276E+01  1.427E-01 
4.147E+01   4.294E+01  1.418E-01 
4.195E+01   4.313E+01  1.409E-01 
4.244E+01   4.331E+01  1.401E-01 
4.293E+01   4.350E+01  1.392E-01 
4.343E+01   4.368E+01  1.383E-01 
4.393E+01   4.386E+01  1.375E-01 
4.444E+01   4.405E+01  1.366E-01 
4.496E+01   4.423E+01  1.358E-01 
4.548E+01   4.441E+01  1.349E-01 
4.600E+01   4.459E+01  1.340E-01 
4.654E+01   4.477E+01  1.332E-01 
4.708E+01   4.495E+01  1.323E-01 
4.762E+01   4.513E+01  1.315E-01 
4.818E+01   4.530E+01  1.307E-01 
4.873E+01   4.548E+01  1.298E-01 
4.930E+01   4.565E+01  1.290E-01 
4.987E+01   4.583E+01  1.282E-01 
5.045E+01   4.600E+01  1.273E-01 
5.104E+01   4.617E+01  1.265E-01 
5.163E+01   4.634E+01  1.257E-01 
5.223E+01   4.651E+01  1.249E-01 
5.283E+01   4.668E+01  1.240E-01 
5.344E+01   4.685E+01  1.232E-01 
5.406E+01   4.701E+01  1.224E-01 
5.469E+01   4.717E+01  1.216E-01 
5.533E+01   4.734E+01  1.208E-01 
5.597E+01   4.750E+01  1.200E-01 
5.662E+01   4.765E+01  1.192E-01 
5.727E+01   4.781E+01  1.184E-01 
5.794E+01   4.797E+01  1.176E-01 
5.861E+01   4.812E+01  1.168E-01 
5.929E+01   4.827E+01  1.161E-01 
5.998E+01   4.842E+01  1.153E-01 
6.067E+01   4.857E+01  1.145E-01 
6.138E+01   4.871E+01  1.137E-01 
6.209E+01   4.886E+01  1.130E-01 
6.281E+01   4.900E+01  1.122E-01 
6.354E+01   4.914E+01  1.114E-01 
6.427E+01   4.927E+01  1.107E-01 
6.502E+01   4.941E+01  1.099E-01 
6.577E+01   4.954E+01  1.092E-01 
6.654E+01   4.967E+01  1.084E-01 
6.731E+01   4.979E+01  1.077E-01 
6.809E+01   4.992E+01  1.069E-01 
6.888E+01   5.004E+01  1.062E-01 
6.968E+01   5.015E+01  1.055E-01 
7.049E+01   5.027E+01  1.047E-01 
7.130E+01   5.038E+01  1.040E-01 
7.213E+01   5.049E+01  1.033E-01 
7.297E+01   5.060E+01  1.025E-01 
7.381E+01   5.070E+01  1.018E-01 
7.467E+01   5.080E+01  1.011E-01 
7.554E+01   5.089E+01  1.004E-01 
7.641E+01   5.099E+01  9.969E-02 
7.730E+01   5.108E+01  9.898E-02 
7.820E+01   5.116E+01  9.828E-02 
7.910E+01   5.124E+01  9.758E-02 
8.002E+01   5.132E+01  9.689E-02 
8.095E+01   5.140E+01  9.620E-02 
8.189E+01   5.147E+01  9.551E-02 
8.284E+01   5.154E+01  9.483E-02 
8.380E+01   5.160E+01  9.415E-02 
8.477E+01   5.166E+01  9.347E-02 
8.575E+01   5.171E+01  9.280E-02 
8.675E+01   5.176E+01  9.213E-02 
8.775E+01   5.181E+01  9.146E-02 
8.877E+01   5.186E+01  9.080E-02 
8.980E+01   5.189E+01  9.014E-02 
9.084E+01   5.193E+01  8.948E-02 
9.190E+01   5.196E+01  8.883E-02 
9.296E+01   5.198E+01  8.818E-02 
9.404E+01   5.201E+01  8.754E-02 
9.513E+01   5.202E+01  8.690E-02 
9.624E+01   5.204E+01  8.626E-02 
9.735E+01   5.204E+01  8.562E-02 
9.848E+01   5.205E+01  8.499E-02 
9.962E+01   5.205E+01  8.437E-02 
1.008E+02   5.204E+01  8.374E-02 
1.019E+02   5.203E+01  8.312E-02 
1.031E+02   5.201E+01  8.250E-02 
1.043E+02   5.199E+01  8.189E-02 
1.055E+02   5.197E+01  8.128E-02 
1.068E+02   5.194E+01  8.067E-02 
1.080E+02   5.191E+01  8.007E-02 
1.093E+02   5.187E+01  7.947E-02 
1.105E+02   5.182E+01  7.887E-02 
1.118E+02   5.177E+01  7.828E-02 
1.131E+02   5.172E+01  7.769E-02 
1.144E+02   5.166E+01  7.711E-02 
1.157E+02   5.160E+01  7.652E-02 
1.171E+02   5.153E+01  7.594E-02 
1.184E+02   5.146E+01  7.537E-02 
1.198E+02   5.138E+01  7.480E-02 
1.212E+02   5.130E+01  7.423E-02 
1.226E+02   5.121E+01  7.366E-02 
1.240E+02   5.112E+01  7.310E-02 
1.255E+02   5.103E+01  7.254E-02 
1.269E+02   5.093E+01  7.199E-02 
1.284E+02   5.082E+01  7.143E-02 
1.299E+02   5.071E+01  7.089E-02 
1.314E+02   5.060E+01  7.034E-02 
1.329E+02   5.048E+01  6.980E-02 
1.345E+02   5.035E+01  6.926E-02 
1.360E+02   5.023E+01  6.872E-02 
1.376E+02   5.010E+01  6.819E-02 
1.392E+02   4.996E+01  6.766E-02 
1.408E+02   4.982E+01  6.714E-02 
1.424E+02   4.967E+01  6.662E-02 
1.441E+02   4.953E+01  6.610E-02 
1.458E+02   4.937E+01  6.558E-02 
1.475E+02   4.922E+01  6.507E-02 
1.492E+02   4.906E+01  6.456E-02 
1.509E+02   4.889E+01  6.406E-02 
1.526E+02   4.873E+01  6.355E-02 
1.544E+02   4.856E+01  6.305E-02 
1.562E+02   4.838E+01  6.256E-02 
1.580E+02   4.820E+01  6.207E-02 
1.598E+02   4.802E+01  6.158E-02 
1.617E+02   4.784E+01  6.109E-02 
1.636E+02   4.765E+01  6.061E-02 
1.655E+02   4.746E+01  6.013E-02 
1.674E+02   4.727E+01  5.965E-02 
1.693E+02   4.707E+01  5.918E-02 
1.713E+02   4.687E+01  5.870E-02 
1.733E+02   4.667E+01  5.824E-02 
1.753E+02   4.646E+01  5.777E-02 
1.773E+02   4.626E+01  5.731E-02 
1.794E+02   4.605E+01  5.685E-02 
1.815E+02   4.584E+01  5.640E-02 
1.836E+02   4.562E+01  5.595E-02 
1.857E+02   4.541E+01  5.550E-02 
1.879E+02   4.519E+01  5.505E-02 
1.900E+02   4.497E+01  5.461E-02 
1.922E+02   4.475E+01  5.579E-02 
1.945E+02   4.453E+01  5.534E-02 
1.967E+02   4.431E+01  5.489E-02 
1.990E+02   4.408E+01  5.444E-02 
2.013E+02   4.385E+01  5.400E-02 
2.036E+02   4.363E+01  5.356E-02 
2.060E+02   4.340E+01  5.312E-02 
2.084E+02   4.317E+01  5.269E-02 
2.108E+02   4.294E+01  5.225E-02 
2.133E+02   4.271E+01  5.182E-02 
2.157E+02   4.247E+01  5.140E-02 
2.182E+02   4.224E+01  5.098E-02 
2.208E+02   4.201E+01  5.056E-02 
2.233E+02   4.178E+01  5.014E-02 
2.259E+02   4.154E+01  4.972E-02 
2.285E+02   4.131E+01  4.931E-02 
2.312E+02   4.107E+01  4.890E-02 
2.339E+02   4.084E+01  4.850E-02 
2.366E+02   4.061E+01  4.810E-02 
2.393E+02   4.037E+01  4.770E-02 
2.421E+02   4.014E+01  4.730E-02 
2.449E+02   3.990E+01  4.690E-02 
2.478E+02   3.967E+01  4.651E-02 
2.506E+02   3.944E+01  4.613E-02 
2.535E+02   3.921E+01  4.574E-02 
2.565E+02   3.897E+01  4.536E-02 
2.595E+02   3.874E+01  4.498E-02 
2.625E+02   3.851E+01  4.460E-02 
2.655E+02   3.828E+01  4.422E-02 
2.686E+02   3.805E+01  4.385E-02 
2.717E+02   3.782E+01  4.348E-02 
2.749E+02   3.760E+01  4.312E-02 
2.780E+02   3.737E+01  4.275E-02 
2.813E+02   3.714E+01  4.239E-02 
2.845E+02   3.692E+01  4.203E-02 
2.878E+02   3.670E+01  4.168E-02 
2.912E+02   3.647E+01  4.132E-02 
2.945E+02   3.625E+01  4.097E-02 
2.980E+02   3.603E+01  4.063E-02 
3.014E+02   3.581E+01  4.028E-02 
3.049E+02   3.559E+01  3.994E-02 
3.085E+02   3.538E+01  3.960E-02 
3.120E+02   3.516E+01  3.926E-02 
3.156E+02   3.494E+01  3.892E-02 
3.193E+02   3.473E+01  3.859E-02 
3.230E+02   3.452E+01  3.826E-02 
3.268E+02   3.431E+01  3.793E-02 
3.306E+02   3.410E+01  3.761E-02 
3.344E+02   3.389E+01  3.729E-02 
3.383E+02   3.368E+01  3.697E-02 
3.422E+02   3.348E+01  3.665E-02 
3.462E+02   3.327E+01  3.633E-02 
3.502E+02   3.307E+01  3.602E-02 
3.542E+02   3.287E+01  3.571E-02 
3.583E+02   3.267E+01  3.540E-02 
3.625E+02   3.247E+01  3.509E-02 
3.667E+02   3.227E+01  3.479E-02 
3.710E+02   3.208E+01  3.449E-02 
3.753E+02   3.188E+01  3.419E-02 
3.796E+02   3.169E+01  3.390E-02 
3.840E+02   3.150E+01  3.360E-02 
3.885E+02   3.131E+01  3.331E-02 
3.930E+02   3.112E+01  3.302E-02 
3.975E+02   3.093E+01  3.273E-02 
4.021E+02   3.074E+01  3.245E-02 
4.068E+02   3.056E+01  3.216E-02 
4.115E+02   3.037E+01  3.188E-02 
4.163E+02   3.019E+01  3.161E-02 
4.211E+02   3.001E+01  3.133E-02 
4.260E+02   2.983E+01  3.106E-02 
4.310E+02   2.965E+01  3.078E-02 
4.360E+02   2.947E+01  3.051E-02 
4.410E+02   2.930E+01  3.025E-02 
4.461E+02   2.912E+01  2.998E-02 
4.513E+02   2.895E+01  2.972E-02 
4.565E+02   2.877E+01  2.946E-02 
4.618E+02   2.860E+01  2.920E-02 
4.672E+02   2.843E+01  2.894E-02 
4.726E+02   2.826E+01  2.868E-02 
4.781E+02   2.809E+01  2.843E-02 
4.836E+02   2.793E+01  2.818E-02 
4.892E+02   2.776E+01  2.793E-02 
4.949E+02   2.760E+01  2.769E-02 
5.007E+02   2.743E+01  2.744E-02 
5.065E+02   2.727E+01  2.720E-02 
5.123E+02   2.711E+01  2.696E-02 
5.183E+02   2.695E+01  2.672E-02 
5.243E+02   2.679E+01  2.648E-02 
5.304E+02   2.663E+01  2.624E-02 
5.365E+02   2.647E+01  2.601E-02 
5.428E+02   2.631E+01  2.578E-02 
5.490E+02   2.616E+01  2.555E-02 
5.554E+02   2.600E+01  2.532E-02 
5.619E+02   2.585E+01  2.510E-02 
5.684E+02   2.569E+01  2.487E-02 
5.750E+02   2.554E+01  2.465E-02 
5.816E+02   2.539E+01  2.443E-02 
5.884E+02   2.524E+01  2.421E-02 
5.952E+02   2.509E+01  2.400E-02 
6.021E+02   2.494E+01  2.378E-02 
6.091E+02   2.479E+01  2.357E-02 
6.162E+02   2.464E+01  2.336E-02 
6.233E+02   2.449E+01  2.315E-02 
6.305E+02   2.435E+01  2.294E-02 
6.378E+02   2.420E+01  2.273E-02 
6.452E+02   2.406E+01  2.253E-02 
6.527E+02   2.391E+01  2.233E-02 
6.603E+02   2.377E+01  2.212E-02 
6.680E+02   2.363E+01  2.193E-02 
6.757E+02   2.349E+01  2.173E-02 
6.835E+02   2.335E+01  2.153E-02 
6.915E+02   2.321E+01  2.134E-02 
6.995E+02   2.307E+01  2.114E-02 
7.076E+02   2.293E+01  2.095E-02 
7.158E+02   2.279E+01  2.076E-02 
7.241E+02   2.265E+01  2.058E-02 
7.325E+02   2.251E+01  2.039E-02 
7.410E+02   2.238E+01  2.020E-02 
7.496E+02   2.224E+01  2.002E-02 
7.583E+02   2.211E+01  1.984E-02 
7.671E+02   2.197E+01  1.966E-02 
7.760E+02   2.184E+01  1.948E-02 
7.850E+02   2.170E+01  1.930E-02 
7.941E+02   2.157E+01  1.913E-02 
8.033E+02   2.144E+01  1.895E-02 
8.126E+02   2.131E+01  1.878E-02 
8.221E+02   2.118E+01  1.861E-02 
8.316E+02   2.105E+01  1.844E-02 
