Ion = Hydrogen    . Mass = 1.0079
Tgt = Tb (Solid). Density = 8.23 g/cm3
Stopping Units =  eV/(1E15 atoms/cm2)
Energy(keV)  S(Elec)    S(Nuc)
1.000E+00   7.474E+00  2.854E-01 
1.012E+00   7.518E+00  2.857E-01 
1.023E+00   7.561E+00  2.861E-01 
1.035E+00   7.605E+00  2.864E-01 
1.047E+00   7.649E+00  2.868E-01 
1.059E+00   7.693E+00  2.871E-01 
1.072E+00   7.738E+00  2.874E-01 
1.084E+00   7.782E+00  2.878E-01 
1.097E+00   7.827E+00  2.881E-01 
1.109E+00   7.873E+00  2.884E-01 
1.122E+00   7.918E+00  2.887E-01 
1.135E+00   7.964E+00  2.890E-01 
1.148E+00   8.010E+00  2.893E-01 
1.162E+00   8.056E+00  2.896E-01 
1.175E+00   8.103E+00  2.899E-01 
1.189E+00   8.150E+00  2.902E-01 
1.203E+00   8.197E+00  2.905E-01 
1.217E+00   8.244E+00  2.908E-01 
1.231E+00   8.292E+00  2.911E-01 
1.245E+00   8.340E+00  2.914E-01 
1.259E+00   8.388E+00  2.916E-01 
1.274E+00   8.437E+00  2.919E-01 
1.289E+00   8.485E+00  2.922E-01 
1.304E+00   8.534E+00  2.924E-01 
1.319E+00   8.584E+00  2.927E-01 
1.334E+00   8.633E+00  2.929E-01 
1.350E+00   8.683E+00  2.932E-01 
1.365E+00   8.734E+00  2.934E-01 
1.381E+00   8.784E+00  2.936E-01 
1.397E+00   8.835E+00  2.939E-01 
1.413E+00   8.886E+00  2.941E-01 
1.430E+00   8.937E+00  2.943E-01 
1.446E+00   8.989E+00  2.945E-01 
1.463E+00   9.041E+00  2.947E-01 
1.480E+00   9.093E+00  2.950E-01 
1.497E+00   9.146E+00  2.952E-01 
1.515E+00   9.199E+00  2.953E-01 
1.532E+00   9.252E+00  2.955E-01 
1.550E+00   9.305E+00  2.957E-01 
1.568E+00   9.359E+00  2.959E-01 
1.586E+00   9.413E+00  2.961E-01 
1.605E+00   9.468E+00  2.963E-01 
1.623E+00   9.523E+00  2.964E-01 
1.642E+00   9.578E+00  2.966E-01 
1.661E+00   9.633E+00  2.967E-01 
1.680E+00   9.689E+00  2.969E-01 
1.700E+00   9.745E+00  2.970E-01 
1.719E+00   9.801E+00  2.972E-01 
1.739E+00   9.858E+00  2.973E-01 
1.760E+00   9.915E+00  2.974E-01 
1.780E+00   9.972E+00  2.976E-01 
1.801E+00   1.003E+01  2.977E-01 
1.822E+00   1.009E+01  2.978E-01 
1.843E+00   1.015E+01  2.979E-01 
1.864E+00   1.020E+01  2.980E-01 
1.886E+00   1.026E+01  2.981E-01 
1.908E+00   1.032E+01  2.982E-01 
1.930E+00   1.038E+01  2.983E-01 
1.952E+00   1.044E+01  2.984E-01 
1.975E+00   1.050E+01  2.985E-01 
1.998E+00   1.056E+01  2.985E-01 
2.021E+00   1.062E+01  2.986E-01 
2.044E+00   1.067E+01  2.987E-01 
2.068E+00   1.072E+01  2.987E-01 
2.092E+00   1.077E+01  2.988E-01 
2.116E+00   1.082E+01  2.988E-01 
2.141E+00   1.087E+01  2.988E-01 
2.166E+00   1.092E+01  2.989E-01 
2.191E+00   1.097E+01  2.989E-01 
2.216E+00   1.103E+01  2.989E-01 
2.242E+00   1.108E+01  2.989E-01 
2.268E+00   1.113E+01  2.989E-01 
2.294E+00   1.118E+01  2.989E-01 
2.321E+00   1.123E+01  2.989E-01 
2.348E+00   1.129E+01  2.989E-01 
2.375E+00   1.134E+01  2.989E-01 
2.402E+00   1.139E+01  2.989E-01 
2.430E+00   1.145E+01  2.989E-01 
2.458E+00   1.150E+01  2.988E-01 
2.487E+00   1.156E+01  2.988E-01 
2.516E+00   1.161E+01  2.988E-01 
2.545E+00   1.167E+01  2.987E-01 
2.574E+00   1.172E+01  2.987E-01 
2.604E+00   1.178E+01  2.986E-01 
2.635E+00   1.183E+01  2.985E-01 
2.665E+00   1.189E+01  2.985E-01 
2.696E+00   1.195E+01  2.984E-01 
2.727E+00   1.200E+01  2.983E-01 
2.759E+00   1.206E+01  2.982E-01 
2.791E+00   1.212E+01  2.981E-01 
2.823E+00   1.217E+01  2.980E-01 
2.856E+00   1.223E+01  2.979E-01 
2.889E+00   1.229E+01  2.978E-01 
2.923E+00   1.235E+01  2.977E-01 
2.957E+00   1.241E+01  2.975E-01 
2.991E+00   1.247E+01  2.974E-01 
3.026E+00   1.253E+01  2.973E-01 
3.061E+00   1.259E+01  2.971E-01 
3.096E+00   1.265E+01  2.970E-01 
3.132E+00   1.271E+01  2.968E-01 
3.168E+00   1.277E+01  2.967E-01 
3.205E+00   1.283E+01  2.965E-01 
3.242E+00   1.289E+01  2.963E-01 
3.280E+00   1.295E+01  2.961E-01 
3.318E+00   1.302E+01  2.959E-01 
3.356E+00   1.308E+01  2.958E-01 
3.395E+00   1.314E+01  2.956E-01 
3.435E+00   1.320E+01  2.953E-01 
3.475E+00   1.327E+01  2.951E-01 
3.515E+00   1.333E+01  2.949E-01 
3.556E+00   1.340E+01  2.947E-01 
3.597E+00   1.346E+01  2.945E-01 
3.639E+00   1.353E+01  2.942E-01 
3.681E+00   1.359E+01  2.940E-01 
3.724E+00   1.366E+01  2.937E-01 
3.767E+00   1.372E+01  2.935E-01 
3.810E+00   1.379E+01  2.932E-01 
3.855E+00   1.386E+01  2.929E-01 
3.899E+00   1.392E+01  2.927E-01 
3.945E+00   1.399E+01  2.924E-01 
3.990E+00   1.406E+01  2.921E-01 
4.037E+00   1.413E+01  2.918E-01 
4.083E+00   1.420E+01  2.915E-01 
4.131E+00   1.426E+01  2.912E-01 
4.179E+00   1.433E+01  2.909E-01 
4.227E+00   1.440E+01  2.906E-01 
4.276E+00   1.447E+01  2.902E-01 
4.326E+00   1.454E+01  2.899E-01 
4.376E+00   1.462E+01  2.896E-01 
4.427E+00   1.469E+01  2.892E-01 
4.478E+00   1.476E+01  2.889E-01 
4.530E+00   1.483E+01  2.885E-01 
4.583E+00   1.490E+01  2.882E-01 
4.636E+00   1.498E+01  2.878E-01 
4.690E+00   1.505E+01  2.874E-01 
4.744E+00   1.512E+01  2.870E-01 
4.799E+00   1.520E+01  2.866E-01 
4.855E+00   1.527E+01  2.862E-01 
4.911E+00   1.535E+01  2.858E-01 
4.968E+00   1.542E+01  2.854E-01 
5.026E+00   1.550E+01  2.850E-01 
5.084E+00   1.557E+01  2.846E-01 
5.143E+00   1.565E+01  2.842E-01 
5.202E+00   1.573E+01  2.838E-01 
5.263E+00   1.580E+01  2.833E-01 
5.324E+00   1.588E+01  2.829E-01 
5.386E+00   1.596E+01  2.824E-01 
5.448E+00   1.604E+01  2.820E-01 
5.511E+00   1.612E+01  2.815E-01 
5.575E+00   1.619E+01  2.810E-01 
5.640E+00   1.627E+01  2.806E-01 
5.705E+00   1.635E+01  2.801E-01 
5.771E+00   1.643E+01  2.796E-01 
5.838E+00   1.652E+01  2.791E-01 
5.906E+00   1.660E+01  2.786E-01 
5.975E+00   1.668E+01  2.781E-01 
6.044E+00   1.676E+01  2.776E-01 
6.114E+00   1.684E+01  2.771E-01 
6.185E+00   1.693E+01  2.766E-01 
6.257E+00   1.701E+01  2.761E-01 
6.329E+00   1.709E+01  2.755E-01 
6.403E+00   1.718E+01  2.750E-01 
6.477E+00   1.726E+01  2.744E-01 
6.552E+00   1.735E+01  2.739E-01 
6.628E+00   1.744E+01  2.733E-01 
6.705E+00   1.752E+01  2.728E-01 
6.783E+00   1.761E+01  2.722E-01 
6.861E+00   1.770E+01  2.716E-01 
6.941E+00   1.778E+01  2.711E-01 
7.021E+00   1.787E+01  2.705E-01 
7.103E+00   1.796E+01  2.699E-01 
7.185E+00   1.805E+01  2.693E-01 
7.269E+00   1.814E+01  2.687E-01 
7.353E+00   1.823E+01  2.681E-01 
7.438E+00   1.832E+01  2.675E-01 
7.524E+00   1.841E+01  2.669E-01 
7.612E+00   1.850E+01  2.662E-01 
7.700E+00   1.859E+01  2.656E-01 
7.789E+00   1.868E+01  2.650E-01 
7.880E+00   1.878E+01  2.644E-01 
7.971E+00   1.887E+01  2.637E-01 
8.064E+00   1.896E+01  2.631E-01 
8.157E+00   1.906E+01  2.624E-01 
8.252E+00   1.915E+01  2.618E-01 
8.347E+00   1.925E+01  2.611E-01 
8.444E+00   1.934E+01  2.604E-01 
8.542E+00   1.944E+01  2.598E-01 
8.641E+00   1.954E+01  2.591E-01 
8.741E+00   1.963E+01  2.584E-01 
8.843E+00   1.973E+01  2.577E-01 
8.945E+00   1.983E+01  2.570E-01 
9.049E+00   1.993E+01  2.563E-01 
9.154E+00   2.003E+01  2.556E-01 
9.260E+00   2.013E+01  2.549E-01 
9.368E+00   2.023E+01  2.542E-01 
9.476E+00   2.033E+01  2.535E-01 
9.586E+00   2.043E+01  2.528E-01 
9.698E+00   2.053E+01  2.521E-01 
9.810E+00   2.063E+01  2.513E-01 
9.924E+00   2.073E+01  2.506E-01 
1.004E+01   2.084E+01  2.499E-01 
1.016E+01   2.094E+01  2.491E-01 
1.027E+01   2.105E+01  2.484E-01 
1.039E+01   2.115E+01  2.476E-01 
1.051E+01   2.126E+01  2.469E-01 
1.063E+01   2.136E+01  2.461E-01 
1.076E+01   2.147E+01  2.454E-01 
1.088E+01   2.157E+01  2.446E-01 
1.101E+01   2.168E+01  2.438E-01 
1.114E+01   2.179E+01  2.431E-01 
1.127E+01   2.190E+01  2.423E-01 
1.140E+01   2.201E+01  2.415E-01 
1.153E+01   2.211E+01  2.407E-01 
1.166E+01   2.222E+01  2.399E-01 
1.180E+01   2.233E+01  2.392E-01 
1.193E+01   2.245E+01  2.384E-01 
1.207E+01   2.256E+01  2.376E-01 
1.221E+01   2.267E+01  2.368E-01 
1.235E+01   2.278E+01  2.360E-01 
1.250E+01   2.289E+01  2.352E-01 
1.264E+01   2.301E+01  2.343E-01 
1.279E+01   2.312E+01  2.335E-01 
1.294E+01   2.324E+01  2.327E-01 
1.309E+01   2.335E+01  2.319E-01 
1.324E+01   2.347E+01  2.311E-01 
1.339E+01   2.358E+01  2.302E-01 
1.355E+01   2.370E+01  2.294E-01 
1.371E+01   2.382E+01  2.286E-01 
1.387E+01   2.393E+01  2.278E-01 
1.403E+01   2.405E+01  2.269E-01 
1.419E+01   2.417E+01  2.261E-01 
1.435E+01   2.429E+01  2.252E-01 
1.452E+01   2.441E+01  2.244E-01 
1.469E+01   2.453E+01  2.235E-01 
1.486E+01   2.465E+01  2.227E-01 
1.503E+01   2.477E+01  2.218E-01 
1.521E+01   2.489E+01  2.210E-01 
1.538E+01   2.502E+01  2.201E-01 
1.556E+01   2.514E+01  2.193E-01 
1.574E+01   2.526E+01  2.184E-01 
1.592E+01   2.539E+01  2.175E-01 
1.611E+01   2.551E+01  2.167E-01 
1.629E+01   2.564E+01  2.158E-01 
1.648E+01   2.576E+01  2.149E-01 
1.667E+01   2.589E+01  2.141E-01 
1.687E+01   2.602E+01  2.132E-01 
1.706E+01   2.614E+01  2.123E-01 
1.726E+01   2.627E+01  2.114E-01 
1.746E+01   2.640E+01  2.106E-01 
1.766E+01   2.653E+01  2.097E-01 
1.787E+01   2.666E+01  2.088E-01 
1.808E+01   2.679E+01  2.079E-01 
1.829E+01   2.692E+01  2.070E-01 
1.850E+01   2.705E+01  2.062E-01 
1.871E+01   2.718E+01  2.053E-01 
1.893E+01   2.731E+01  2.044E-01 
1.915E+01   2.744E+01  2.035E-01 
1.937E+01   2.757E+01  2.026E-01 
1.960E+01   2.771E+01  2.017E-01 
1.982E+01   2.784E+01  2.008E-01 
2.005E+01   2.798E+01  1.999E-01 
2.029E+01   2.811E+01  1.990E-01 
2.052E+01   2.824E+01  1.981E-01 
2.076E+01   2.838E+01  1.972E-01 
2.100E+01   2.852E+01  1.964E-01 
2.124E+01   2.865E+01  1.955E-01 
2.149E+01   2.879E+01  1.946E-01 
2.174E+01   2.893E+01  1.937E-01 
2.199E+01   2.906E+01  1.928E-01 
2.225E+01   2.920E+01  1.919E-01 
2.250E+01   2.934E+01  1.910E-01 
2.277E+01   2.948E+01  1.901E-01 
2.303E+01   2.962E+01  1.892E-01 
2.330E+01   2.976E+01  1.883E-01 
2.357E+01   2.990E+01  1.874E-01 
2.384E+01   3.004E+01  1.865E-01 
2.412E+01   3.018E+01  1.856E-01 
2.440E+01   3.032E+01  1.847E-01 
2.468E+01   3.047E+01  1.838E-01 
2.497E+01   3.061E+01  1.829E-01 
2.526E+01   3.075E+01  1.820E-01 
2.555E+01   3.089E+01  1.811E-01 
2.584E+01   3.104E+01  1.802E-01 
2.614E+01   3.118E+01  1.793E-01 
2.645E+01   3.132E+01  1.784E-01 
2.675E+01   3.147E+01  1.775E-01 
2.707E+01   3.161E+01  1.766E-01 
2.738E+01   3.176E+01  1.757E-01 
2.770E+01   3.190E+01  1.748E-01 
2.802E+01   3.205E+01  1.739E-01 
2.834E+01   3.220E+01  1.730E-01 
2.867E+01   3.234E+01  1.721E-01 
2.900E+01   3.249E+01  1.712E-01 
2.934E+01   3.263E+01  1.703E-01 
2.968E+01   3.278E+01  1.694E-01 
3.003E+01   3.293E+01  1.685E-01 
3.037E+01   3.308E+01  1.676E-01 
3.073E+01   3.322E+01  1.667E-01 
3.108E+01   3.337E+01  1.659E-01 
3.144E+01   3.352E+01  1.650E-01 
3.181E+01   3.367E+01  1.641E-01 
3.218E+01   3.382E+01  1.632E-01 
3.255E+01   3.396E+01  1.623E-01 
3.293E+01   3.411E+01  1.614E-01 
3.331E+01   3.426E+01  1.606E-01 
3.370E+01   3.441E+01  1.597E-01 
3.409E+01   3.456E+01  1.588E-01 
3.448E+01   3.471E+01  1.579E-01 
3.488E+01   3.486E+01  1.570E-01 
3.529E+01   3.501E+01  1.562E-01 
3.570E+01   3.515E+01  1.553E-01 
3.611E+01   3.530E+01  1.544E-01 
3.653E+01   3.545E+01  1.536E-01 
3.695E+01   3.560E+01  1.527E-01 
3.738E+01   3.575E+01  1.518E-01 
3.781E+01   3.590E+01  1.510E-01 
3.825E+01   3.605E+01  1.501E-01 
3.870E+01   3.619E+01  1.492E-01 
3.915E+01   3.634E+01  1.484E-01 
3.960E+01   3.649E+01  1.475E-01 
4.006E+01   3.664E+01  1.467E-01 
4.052E+01   3.679E+01  1.458E-01 
4.099E+01   3.693E+01  1.450E-01 
4.147E+01   3.708E+01  1.441E-01 
4.195E+01   3.723E+01  1.433E-01 
4.244E+01   3.737E+01  1.424E-01 
4.293E+01   3.752E+01  1.416E-01 
4.343E+01   3.767E+01  1.408E-01 
4.393E+01   3.781E+01  1.399E-01 
4.444E+01   3.796E+01  1.391E-01 
4.496E+01   3.810E+01  1.382E-01 
4.548E+01   3.825E+01  1.374E-01 
4.600E+01   3.839E+01  1.366E-01 
4.654E+01   3.853E+01  1.358E-01 
4.708E+01   3.868E+01  1.349E-01 
4.762E+01   3.882E+01  1.341E-01 
4.818E+01   3.896E+01  1.333E-01 
4.873E+01   3.910E+01  1.325E-01 
4.930E+01   3.924E+01  1.317E-01 
4.987E+01   3.938E+01  1.309E-01 
5.045E+01   3.952E+01  1.300E-01 
5.104E+01   3.966E+01  1.292E-01 
5.163E+01   3.980E+01  1.284E-01 
5.223E+01   3.993E+01  1.276E-01 
5.283E+01   4.007E+01  1.268E-01 
5.344E+01   4.020E+01  1.260E-01 
5.406E+01   4.034E+01  1.252E-01 
5.469E+01   4.047E+01  1.245E-01 
5.533E+01   4.060E+01  1.237E-01 
5.597E+01   4.073E+01  1.229E-01 
5.662E+01   4.086E+01  1.221E-01 
5.727E+01   4.099E+01  1.213E-01 
5.794E+01   4.112E+01  1.205E-01 
5.861E+01   4.125E+01  1.198E-01 
5.929E+01   4.137E+01  1.190E-01 
5.998E+01   4.150E+01  1.182E-01 
6.067E+01   4.162E+01  1.175E-01 
6.138E+01   4.174E+01  1.167E-01 
6.209E+01   4.186E+01  1.159E-01 
6.281E+01   4.198E+01  1.152E-01 
6.354E+01   4.210E+01  1.144E-01 
6.427E+01   4.221E+01  1.137E-01 
6.502E+01   4.233E+01  1.129E-01 
6.577E+01   4.244E+01  1.122E-01 
6.654E+01   4.255E+01  1.114E-01 
6.731E+01   4.266E+01  1.107E-01 
6.809E+01   4.277E+01  1.100E-01 
6.888E+01   4.288E+01  1.092E-01 
6.968E+01   4.298E+01  1.085E-01 
7.049E+01   4.309E+01  1.078E-01 
7.130E+01   4.319E+01  1.071E-01 
7.213E+01   4.329E+01  1.063E-01 
7.297E+01   4.338E+01  1.056E-01 
7.381E+01   4.348E+01  1.049E-01 
7.467E+01   4.357E+01  1.042E-01 
7.554E+01   4.367E+01  1.035E-01 
7.641E+01   4.376E+01  1.028E-01 
7.730E+01   4.384E+01  1.021E-01 
7.820E+01   4.393E+01  1.014E-01 
7.910E+01   4.401E+01  1.007E-01 
8.002E+01   4.410E+01  9.999E-02 
8.095E+01   4.417E+01  9.930E-02 
8.189E+01   4.425E+01  9.861E-02 
8.284E+01   4.433E+01  9.793E-02 
8.380E+01   4.440E+01  9.725E-02 
8.477E+01   4.447E+01  9.657E-02 
8.575E+01   4.454E+01  9.590E-02 
8.675E+01   4.460E+01  9.523E-02 
8.775E+01   4.467E+01  9.456E-02 
8.877E+01   4.473E+01  9.390E-02 
8.980E+01   4.478E+01  9.324E-02 
9.084E+01   4.484E+01  9.258E-02 
9.190E+01   4.489E+01  9.193E-02 
9.296E+01   4.494E+01  9.128E-02 
9.404E+01   4.499E+01  9.063E-02 
9.513E+01   4.504E+01  8.998E-02 
9.624E+01   4.508E+01  8.934E-02 
9.735E+01   4.512E+01  8.871E-02 
9.848E+01   4.515E+01  8.807E-02 
9.962E+01   4.519E+01  8.744E-02 
1.008E+02   4.522E+01  8.681E-02 
1.019E+02   4.525E+01  8.619E-02 
1.031E+02   4.528E+01  8.557E-02 
1.043E+02   4.530E+01  8.495E-02 
1.055E+02   4.532E+01  8.433E-02 
1.068E+02   4.534E+01  8.372E-02 
1.080E+02   4.535E+01  8.311E-02 
1.093E+02   4.536E+01  8.251E-02 
1.105E+02   4.537E+01  8.191E-02 
1.118E+02   4.538E+01  8.131E-02 
1.131E+02   4.538E+01  8.071E-02 
1.144E+02   4.538E+01  8.012E-02 
1.157E+02   4.538E+01  7.953E-02 
1.171E+02   4.537E+01  7.894E-02 
1.184E+02   4.536E+01  7.836E-02 
1.198E+02   4.535E+01  7.778E-02 
1.212E+02   4.534E+01  7.721E-02 
1.226E+02   4.532E+01  7.663E-02 
1.240E+02   4.530E+01  7.606E-02 
1.255E+02   4.527E+01  7.550E-02 
1.269E+02   4.525E+01  7.493E-02 
1.284E+02   4.522E+01  7.438E-02 
1.299E+02   4.519E+01  7.382E-02 
1.314E+02   4.515E+01  7.326E-02 
1.329E+02   4.511E+01  7.271E-02 
1.345E+02   4.507E+01  7.217E-02 
1.360E+02   4.503E+01  7.162E-02 
1.376E+02   4.498E+01  7.108E-02 
1.392E+02   4.493E+01  7.055E-02 
1.408E+02   4.488E+01  7.001E-02 
1.424E+02   4.483E+01  6.948E-02 
1.441E+02   4.477E+01  6.895E-02 
1.458E+02   4.471E+01  6.843E-02 
1.475E+02   4.464E+01  6.791E-02 
1.492E+02   4.458E+01  6.739E-02 
1.509E+02   4.451E+01  6.687E-02 
1.526E+02   4.444E+01  6.636E-02 
1.544E+02   4.436E+01  6.585E-02 
1.562E+02   4.429E+01  6.534E-02 
1.580E+02   4.421E+01  6.484E-02 
1.598E+02   4.413E+01  6.434E-02 
1.617E+02   4.404E+01  6.384E-02 
1.636E+02   4.396E+01  6.335E-02 
1.655E+02   4.387E+01  6.286E-02 
1.674E+02   4.377E+01  6.237E-02 
1.693E+02   4.368E+01  6.189E-02 
1.713E+02   4.358E+01  6.141E-02 
1.733E+02   4.348E+01  6.093E-02 
1.753E+02   4.338E+01  6.045E-02 
1.773E+02   4.328E+01  5.998E-02 
1.794E+02   4.317E+01  5.951E-02 
1.815E+02   4.307E+01  5.904E-02 
1.836E+02   4.296E+01  5.858E-02 
1.857E+02   4.285E+01  5.812E-02 
1.879E+02   4.273E+01  5.766E-02 
1.900E+02   4.262E+01  5.721E-02 
1.922E+02   4.250E+01  5.675E-02 
1.945E+02   4.238E+01  5.631E-02 
1.967E+02   4.226E+01  5.586E-02 
1.990E+02   4.213E+01  5.542E-02 
2.013E+02   4.201E+01  5.498E-02 
2.036E+02   4.188E+01  5.454E-02 
2.060E+02   4.175E+01  5.411E-02 
2.084E+02   4.162E+01  5.368E-02 
2.108E+02   4.149E+01  5.325E-02 
2.133E+02   4.135E+01  5.282E-02 
2.157E+02   4.122E+01  5.240E-02 
2.182E+02   4.108E+01  5.434E-02 
2.208E+02   4.094E+01  5.390E-02 
2.233E+02   4.080E+01  5.346E-02 
2.259E+02   4.066E+01  5.302E-02 
2.285E+02   4.052E+01  5.259E-02 
2.312E+02   4.037E+01  5.216E-02 
2.339E+02   4.023E+01  5.174E-02 
2.366E+02   4.008E+01  5.131E-02 
2.393E+02   3.993E+01  5.089E-02 
2.421E+02   3.978E+01  5.047E-02 
2.449E+02   3.963E+01  5.006E-02 
2.478E+02   3.948E+01  4.965E-02 
2.506E+02   3.933E+01  4.924E-02 
2.535E+02   3.918E+01  4.883E-02 
2.565E+02   3.902E+01  4.843E-02 
2.595E+02   3.887E+01  4.803E-02 
2.625E+02   3.871E+01  4.763E-02 
2.655E+02   3.855E+01  4.724E-02 
2.686E+02   3.839E+01  4.684E-02 
2.717E+02   3.823E+01  4.646E-02 
2.749E+02   3.807E+01  4.607E-02 
2.780E+02   3.791E+01  4.569E-02 
2.813E+02   3.775E+01  4.530E-02 
2.845E+02   3.759E+01  4.493E-02 
2.878E+02   3.743E+01  4.455E-02 
2.912E+02   3.726E+01  4.418E-02 
2.945E+02   3.710E+01  4.381E-02 
2.980E+02   3.693E+01  4.344E-02 
3.014E+02   3.677E+01  4.308E-02 
3.049E+02   3.660E+01  4.271E-02 
3.085E+02   3.644E+01  4.235E-02 
3.120E+02   3.627E+01  4.200E-02 
3.156E+02   3.610E+01  4.164E-02 
3.193E+02   3.594E+01  4.129E-02 
3.230E+02   3.577E+01  4.094E-02 
3.268E+02   3.560E+01  4.060E-02 
3.306E+02   3.543E+01  4.025E-02 
3.344E+02   3.526E+01  3.991E-02 
3.383E+02   3.509E+01  3.957E-02 
3.422E+02   3.492E+01  3.924E-02 
3.462E+02   3.475E+01  3.890E-02 
3.502E+02   3.458E+01  3.857E-02 
3.542E+02   3.441E+01  3.824E-02 
3.583E+02   3.424E+01  3.792E-02 
3.625E+02   3.407E+01  3.759E-02 
3.667E+02   3.390E+01  3.727E-02 
3.710E+02   3.372E+01  3.695E-02 
3.753E+02   3.355E+01  3.663E-02 
3.796E+02   3.338E+01  3.632E-02 
3.840E+02   3.321E+01  3.601E-02 
3.885E+02   3.304E+01  3.570E-02 
3.930E+02   3.286E+01  3.539E-02 
3.975E+02   3.269E+01  3.509E-02 
4.021E+02   3.252E+01  3.479E-02 
4.068E+02   3.235E+01  3.449E-02 
4.115E+02   3.217E+01  3.419E-02 
4.163E+02   3.200E+01  3.389E-02 
4.211E+02   3.183E+01  3.360E-02 
4.260E+02   3.166E+01  3.331E-02 
4.310E+02   3.148E+01  3.302E-02 
4.360E+02   3.131E+01  3.273E-02 
4.410E+02   3.114E+01  3.245E-02 
4.461E+02   3.097E+01  3.217E-02 
4.513E+02   3.080E+01  3.189E-02 
4.565E+02   3.062E+01  3.161E-02 
4.618E+02   3.045E+01  3.133E-02 
4.672E+02   3.028E+01  3.106E-02 
4.726E+02   3.011E+01  3.079E-02 
4.781E+02   2.994E+01  3.052E-02 
4.836E+02   2.977E+01  3.025E-02 
4.892E+02   2.959E+01  2.999E-02 
4.949E+02   2.942E+01  2.973E-02 
5.007E+02   2.925E+01  2.947E-02 
5.065E+02   2.908E+01  2.921E-02 
5.123E+02   2.891E+01  2.895E-02 
5.183E+02   2.874E+01  2.870E-02 
5.243E+02   2.857E+01  2.844E-02 
5.304E+02   2.840E+01  2.819E-02 
5.365E+02   2.823E+01  2.795E-02 
5.428E+02   2.806E+01  2.770E-02 
5.490E+02   2.790E+01  2.745E-02 
5.554E+02   2.773E+01  2.721E-02 
5.619E+02   2.756E+01  2.697E-02 
5.684E+02   2.739E+01  2.673E-02 
5.750E+02   2.722E+01  2.650E-02 
5.816E+02   2.706E+01  2.626E-02 
5.884E+02   2.689E+01  2.603E-02 
5.952E+02   2.672E+01  2.580E-02 
6.021E+02   2.656E+01  2.557E-02 
6.091E+02   2.639E+01  2.534E-02 
6.162E+02   2.622E+01  2.512E-02 
6.233E+02   2.606E+01  2.489E-02 
6.305E+02   2.589E+01  2.467E-02 
6.378E+02   2.573E+01  2.445E-02 
6.452E+02   2.557E+01  2.423E-02 
6.527E+02   2.540E+01  2.402E-02 
6.603E+02   2.524E+01  2.380E-02 
6.680E+02   2.508E+01  2.359E-02 
6.757E+02   2.491E+01  2.338E-02 
6.835E+02   2.475E+01  2.317E-02 
6.915E+02   2.459E+01  2.296E-02 
6.995E+02   2.443E+01  2.276E-02 
7.076E+02   2.427E+01  2.255E-02 
7.158E+02   2.411E+01  2.235E-02 
7.241E+02   2.395E+01  2.215E-02 
7.325E+02   2.379E+01  2.195E-02 
7.410E+02   2.363E+01  2.175E-02 
7.496E+02   2.347E+01  2.156E-02 
7.583E+02   2.332E+01  2.136E-02 
7.671E+02   2.316E+01  2.117E-02 
7.760E+02   2.300E+01  2.098E-02 
7.850E+02   2.285E+01  2.079E-02 
7.941E+02   2.269E+01  2.060E-02 
8.033E+02   2.254E+01  2.042E-02 
8.126E+02   2.238E+01  2.023E-02 
8.221E+02   2.223E+01  2.005E-02 
8.316E+02   2.207E+01  1.987E-02 
