Ion = Helium      . Mass = 4.0026
Tgt = Zn (Solid). Density = 7.14 g/cm3
Stopping Units =  eV/(1E15 atoms/cm2)
Energy(keV)  S(Elec)    S(Nuc)
1.000E+00   3.446E+00  3.021E+00 
1.013E+00   3.468E+00  3.025E+00 
1.026E+00   3.490E+00  3.029E+00 
1.039E+00   3.513E+00  3.033E+00 
1.053E+00   3.536E+00  3.037E+00 
1.067E+00   3.559E+00  3.041E+00 
1.081E+00   3.582E+00  3.045E+00 
1.095E+00   3.605E+00  3.049E+00 
1.109E+00   3.628E+00  3.053E+00 
1.123E+00   3.652E+00  3.057E+00 
1.138E+00   3.675E+00  3.060E+00 
1.153E+00   3.699E+00  3.064E+00 
1.168E+00   3.723E+00  3.068E+00 
1.183E+00   3.747E+00  3.071E+00 
1.198E+00   3.772E+00  3.074E+00 
1.214E+00   3.796E+00  3.078E+00 
1.229E+00   3.821E+00  3.081E+00 
1.245E+00   3.845E+00  3.084E+00 
1.262E+00   3.870E+00  3.087E+00 
1.278E+00   3.895E+00  3.090E+00 
1.295E+00   3.920E+00  3.093E+00 
1.311E+00   3.946E+00  3.096E+00 
1.329E+00   3.971E+00  3.099E+00 
1.346E+00   3.997E+00  3.102E+00 
1.363E+00   4.023E+00  3.105E+00 
1.381E+00   4.049E+00  3.107E+00 
1.399E+00   4.075E+00  3.110E+00 
1.417E+00   4.102E+00  3.112E+00 
1.436E+00   4.128E+00  3.115E+00 
1.454E+00   4.155E+00  3.117E+00 
1.473E+00   4.182E+00  3.119E+00 
1.492E+00   4.209E+00  3.121E+00 
1.512E+00   4.236E+00  3.123E+00 
1.531E+00   4.264E+00  3.125E+00 
1.551E+00   4.291E+00  3.127E+00 
1.571E+00   4.319E+00  3.129E+00 
1.592E+00   4.347E+00  3.131E+00 
1.612E+00   4.375E+00  3.133E+00 
1.633E+00   4.404E+00  3.134E+00 
1.655E+00   4.432E+00  3.136E+00 
1.676E+00   4.461E+00  3.137E+00 
1.698E+00   4.490E+00  3.138E+00 
1.720E+00   4.519E+00  3.140E+00 
1.742E+00   4.548E+00  3.141E+00 
1.765E+00   4.578E+00  3.142E+00 
1.788E+00   4.607E+00  3.143E+00 
1.811E+00   4.637E+00  3.144E+00 
1.835E+00   4.667E+00  3.145E+00 
1.859E+00   4.697E+00  3.146E+00 
1.883E+00   4.728E+00  3.146E+00 
1.907E+00   4.758E+00  3.147E+00 
1.932E+00   4.789E+00  3.147E+00 
1.957E+00   4.820E+00  3.148E+00 
1.983E+00   4.851E+00  3.148E+00 
2.008E+00   4.883E+00  3.148E+00 
2.034E+00   4.914E+00  3.149E+00 
2.061E+00   4.946E+00  3.149E+00 
2.088E+00   4.978E+00  3.149E+00 
2.115E+00   5.011E+00  3.149E+00 
2.142E+00   5.043E+00  3.148E+00 
2.170E+00   5.076E+00  3.148E+00 
2.198E+00   5.109E+00  3.148E+00 
2.227E+00   5.142E+00  3.147E+00 
2.256E+00   5.175E+00  3.147E+00 
2.285E+00   5.209E+00  3.146E+00 
2.315E+00   5.242E+00  3.146E+00 
2.345E+00   5.276E+00  3.145E+00 
2.375E+00   5.310E+00  3.144E+00 
2.406E+00   5.345E+00  3.143E+00 
2.438E+00   5.379E+00  3.142E+00 
2.469E+00   5.414E+00  3.141E+00 
2.501E+00   5.449E+00  3.139E+00 
2.534E+00   5.485E+00  3.138E+00 
2.567E+00   5.520E+00  3.137E+00 
2.600E+00   5.556E+00  3.135E+00 
2.634E+00   5.592E+00  3.133E+00 
2.668E+00   5.628E+00  3.132E+00 
2.703E+00   5.665E+00  3.130E+00 
2.738E+00   5.701E+00  3.128E+00 
2.773E+00   5.738E+00  3.126E+00 
2.810E+00   5.775E+00  3.124E+00 
2.846E+00   5.813E+00  3.122E+00 
2.883E+00   5.850E+00  3.120E+00 
2.921E+00   5.888E+00  3.117E+00 
2.958E+00   5.926E+00  3.115E+00 
2.997E+00   5.965E+00  3.112E+00 
3.036E+00   6.003E+00  3.110E+00 
3.075E+00   6.042E+00  3.107E+00 
3.115E+00   6.081E+00  3.104E+00 
3.156E+00   6.121E+00  3.101E+00 
3.197E+00   6.161E+00  3.098E+00 
3.238E+00   6.200E+00  3.095E+00 
3.280E+00   6.241E+00  3.092E+00 
3.323E+00   6.281E+00  3.089E+00 
3.366E+00   6.322E+00  3.085E+00 
3.410E+00   6.363E+00  3.082E+00 
3.454E+00   6.404E+00  3.078E+00 
3.499E+00   6.445E+00  3.075E+00 
3.545E+00   6.487E+00  3.071E+00 
3.591E+00   6.529E+00  3.067E+00 
3.637E+00   6.571E+00  3.063E+00 
3.685E+00   6.614E+00  3.059E+00 
3.733E+00   6.657E+00  3.055E+00 
3.781E+00   6.700E+00  3.051E+00 
3.830E+00   6.743E+00  3.047E+00 
3.880E+00   6.787E+00  3.042E+00 
3.930E+00   6.831E+00  3.038E+00 
3.982E+00   6.875E+00  3.033E+00 
4.033E+00   6.920E+00  3.029E+00 
4.086E+00   6.965E+00  3.024E+00 
4.139E+00   7.010E+00  3.019E+00 
4.193E+00   7.055E+00  3.014E+00 
4.247E+00   7.101E+00  3.009E+00 
4.302E+00   7.147E+00  3.004E+00 
4.358E+00   7.193E+00  2.999E+00 
4.415E+00   7.240E+00  2.994E+00 
4.472E+00   7.287E+00  2.988E+00 
4.530E+00   7.334E+00  2.983E+00 
4.589E+00   7.381E+00  2.977E+00 
4.649E+00   7.429E+00  2.972E+00 
4.709E+00   7.477E+00  2.966E+00 
4.770E+00   7.526E+00  2.960E+00 
4.832E+00   7.574E+00  2.955E+00 
4.895E+00   7.623E+00  2.949E+00 
4.959E+00   7.673E+00  2.943E+00 
5.023E+00   7.722E+00  2.936E+00 
5.089E+00   7.772E+00  2.930E+00 
5.155E+00   7.823E+00  2.924E+00 
5.222E+00   7.873E+00  2.918E+00 
5.290E+00   7.924E+00  2.911E+00 
5.358E+00   7.976E+00  2.905E+00 
5.428E+00   8.027E+00  2.898E+00 
5.499E+00   8.079E+00  2.891E+00 
5.570E+00   8.132E+00  2.885E+00 
5.642E+00   8.184E+00  2.878E+00 
5.716E+00   8.237E+00  2.871E+00 
5.790E+00   8.291E+00  2.864E+00 
5.865E+00   8.345E+00  2.857E+00 
5.942E+00   8.399E+00  2.849E+00 
6.019E+00   8.453E+00  2.842E+00 
6.097E+00   8.508E+00  2.835E+00 
6.176E+00   8.563E+00  2.827E+00 
6.256E+00   8.618E+00  2.820E+00 
6.338E+00   8.674E+00  2.812E+00 
6.420E+00   8.730E+00  2.805E+00 
6.504E+00   8.787E+00  2.797E+00 
6.588E+00   8.844E+00  2.789E+00 
6.674E+00   8.901E+00  2.782E+00 
6.760E+00   8.959E+00  2.774E+00 
6.848E+00   9.017E+00  2.766E+00 
6.937E+00   9.075E+00  2.758E+00 
7.027E+00   9.134E+00  2.749E+00 
7.119E+00   9.193E+00  2.741E+00 
7.211E+00   9.253E+00  2.733E+00 
7.305E+00   9.313E+00  2.725E+00 
7.400E+00   9.373E+00  2.716E+00 
7.496E+00   9.434E+00  2.708E+00 
7.594E+00   9.495E+00  2.699E+00 
7.692E+00   9.556E+00  2.691E+00 
7.792E+00   9.618E+00  2.682E+00 
7.894E+00   9.680E+00  2.673E+00 
7.996E+00   9.743E+00  2.665E+00 
8.100E+00   9.811E+00  2.656E+00 
8.205E+00   9.880E+00  2.647E+00 
8.312E+00   9.949E+00  2.638E+00 
8.420E+00   1.002E+01  2.629E+00 
8.529E+00   1.009E+01  2.620E+00 
8.640E+00   1.016E+01  2.611E+00 
8.753E+00   1.023E+01  2.602E+00 
8.866E+00   1.030E+01  2.592E+00 
8.982E+00   1.037E+01  2.583E+00 
9.098E+00   1.045E+01  2.574E+00 
9.217E+00   1.052E+01  2.564E+00 
9.336E+00   1.059E+01  2.555E+00 
9.458E+00   1.067E+01  2.545E+00 
9.581E+00   1.074E+01  2.536E+00 
9.705E+00   1.082E+01  2.526E+00 
9.831E+00   1.089E+01  2.517E+00 
9.959E+00   1.097E+01  2.507E+00 
1.009E+01   1.105E+01  2.497E+00 
1.022E+01   1.112E+01  2.487E+00 
1.035E+01   1.120E+01  2.478E+00 
1.049E+01   1.128E+01  2.468E+00 
1.062E+01   1.136E+01  2.458E+00 
1.076E+01   1.144E+01  2.448E+00 
1.090E+01   1.152E+01  2.438E+00 
1.104E+01   1.160E+01  2.428E+00 
1.119E+01   1.168E+01  2.418E+00 
1.133E+01   1.176E+01  2.408E+00 
1.148E+01   1.185E+01  2.398E+00 
1.163E+01   1.193E+01  2.387E+00 
1.178E+01   1.201E+01  2.377E+00 
1.193E+01   1.210E+01  2.367E+00 
1.209E+01   1.218E+01  2.357E+00 
1.224E+01   1.227E+01  2.346E+00 
1.240E+01   1.235E+01  2.336E+00 
1.256E+01   1.244E+01  2.326E+00 
1.273E+01   1.253E+01  2.315E+00 
1.289E+01   1.261E+01  2.305E+00 
1.306E+01   1.270E+01  2.295E+00 
1.323E+01   1.279E+01  2.284E+00 
1.340E+01   1.288E+01  2.274E+00 
1.358E+01   1.297E+01  2.263E+00 
1.375E+01   1.306E+01  2.252E+00 
1.393E+01   1.315E+01  2.242E+00 
1.411E+01   1.325E+01  2.231E+00 
1.430E+01   1.334E+01  2.221E+00 
1.448E+01   1.343E+01  2.210E+00 
1.467E+01   1.353E+01  2.199E+00 
1.486E+01   1.362E+01  2.189E+00 
1.505E+01   1.372E+01  2.178E+00 
1.525E+01   1.381E+01  2.167E+00 
1.545E+01   1.391E+01  2.157E+00 
1.565E+01   1.401E+01  2.146E+00 
1.585E+01   1.411E+01  2.135E+00 
1.606E+01   1.421E+01  2.124E+00 
1.627E+01   1.430E+01  2.114E+00 
1.648E+01   1.441E+01  2.103E+00 
1.669E+01   1.451E+01  2.092E+00 
1.691E+01   1.461E+01  2.081E+00 
1.713E+01   1.471E+01  2.071E+00 
1.735E+01   1.481E+01  2.060E+00 
1.758E+01   1.492E+01  2.049E+00 
1.781E+01   1.502E+01  2.038E+00 
1.804E+01   1.513E+01  2.027E+00 
1.827E+01   1.523E+01  2.016E+00 
1.851E+01   1.534E+01  2.006E+00 
1.875E+01   1.545E+01  1.995E+00 
1.899E+01   1.556E+01  1.984E+00 
1.924E+01   1.567E+01  1.973E+00 
1.949E+01   1.578E+01  1.962E+00 
1.974E+01   1.589E+01  1.951E+00 
2.000E+01   1.600E+01  1.941E+00 
2.026E+01   1.611E+01  1.930E+00 
2.052E+01   1.622E+01  1.919E+00 
2.079E+01   1.634E+01  1.908E+00 
2.106E+01   1.645E+01  1.897E+00 
2.133E+01   1.657E+01  1.887E+00 
2.161E+01   1.668E+01  1.876E+00 
2.189E+01   1.680E+01  1.865E+00 
2.218E+01   1.692E+01  1.854E+00 
2.247E+01   1.704E+01  1.843E+00 
2.276E+01   1.716E+01  1.833E+00 
2.305E+01   1.728E+01  1.822E+00 
2.335E+01   1.740E+01  1.811E+00 
2.366E+01   1.752E+01  1.800E+00 
2.396E+01   1.764E+01  1.790E+00 
2.428E+01   1.777E+01  1.779E+00 
2.459E+01   1.789E+01  1.768E+00 
2.491E+01   1.802E+01  1.758E+00 
2.523E+01   1.814E+01  1.747E+00 
2.556E+01   1.827E+01  1.736E+00 
2.589E+01   1.840E+01  1.726E+00 
2.623E+01   1.853E+01  1.715E+00 
2.657E+01   1.866E+01  1.705E+00 
2.692E+01   1.879E+01  1.694E+00 
2.727E+01   1.892E+01  1.684E+00 
2.762E+01   1.905E+01  1.673E+00 
2.798E+01   1.918E+01  1.662E+00 
2.834E+01   1.932E+01  1.652E+00 
2.871E+01   1.945E+01  1.642E+00 
2.909E+01   1.959E+01  1.631E+00 
2.946E+01   1.973E+01  1.621E+00 
2.985E+01   1.987E+01  1.610E+00 
3.023E+01   2.001E+01  1.600E+00 
3.063E+01   2.015E+01  1.590E+00 
3.103E+01   2.029E+01  1.579E+00 
3.143E+01   2.043E+01  1.569E+00 
3.184E+01   2.057E+01  1.559E+00 
3.225E+01   2.072E+01  1.549E+00 
3.267E+01   2.086E+01  1.538E+00 
3.309E+01   2.101E+01  1.528E+00 
3.352E+01   2.115E+01  1.518E+00 
3.396E+01   2.130E+01  1.508E+00 
3.440E+01   2.145E+01  1.498E+00 
3.485E+01   2.160E+01  1.488E+00 
3.530E+01   2.175E+01  1.478E+00 
3.576E+01   2.190E+01  1.468E+00 
3.623E+01   2.206E+01  1.458E+00 
3.670E+01   2.221E+01  1.448E+00 
3.717E+01   2.237E+01  1.438E+00 
3.766E+01   2.252E+01  1.428E+00 
3.815E+01   2.268E+01  1.418E+00 
3.864E+01   2.284E+01  1.408E+00 
3.914E+01   2.300E+01  1.399E+00 
3.965E+01   2.316E+01  1.389E+00 
4.017E+01   2.332E+01  1.379E+00 
4.069E+01   2.348E+01  1.370E+00 
4.122E+01   2.365E+01  1.360E+00 
4.175E+01   2.381E+01  1.350E+00 
4.230E+01   2.398E+01  1.341E+00 
4.285E+01   2.415E+01  1.331E+00 
4.340E+01   2.431E+01  1.322E+00 
4.397E+01   2.448E+01  1.312E+00 
4.454E+01   2.465E+01  1.303E+00 
4.512E+01   2.483E+01  1.294E+00 
4.570E+01   2.500E+01  1.284E+00 
4.630E+01   2.517E+01  1.275E+00 
4.690E+01   2.535E+01  1.266E+00 
4.751E+01   2.552E+01  1.257E+00 
4.813E+01   2.570E+01  1.247E+00 
4.875E+01   2.588E+01  1.238E+00 
4.939E+01   2.606E+01  1.229E+00 
5.003E+01   2.624E+01  1.220E+00 
5.068E+01   2.642E+01  1.211E+00 
5.134E+01   2.661E+01  1.202E+00 
5.200E+01   2.679E+01  1.193E+00 
5.268E+01   2.698E+01  1.184E+00 
5.336E+01   2.717E+01  1.176E+00 
5.406E+01   2.735E+01  1.167E+00 
5.476E+01   2.754E+01  1.158E+00 
5.547E+01   2.773E+01  1.149E+00 
5.619E+01   2.793E+01  1.141E+00 
5.692E+01   2.812E+01  1.132E+00 
5.766E+01   2.831E+01  1.123E+00 
5.841E+01   2.851E+01  1.115E+00 
5.917E+01   2.871E+01  1.106E+00 
5.994E+01   2.890E+01  1.098E+00 
6.072E+01   2.910E+01  1.089E+00 
6.151E+01   2.930E+01  1.081E+00 
6.231E+01   2.951E+01  1.073E+00 
6.312E+01   2.971E+01  1.064E+00 
6.394E+01   2.991E+01  1.056E+00 
6.477E+01   3.012E+01  1.048E+00 
6.561E+01   3.033E+01  1.040E+00 
6.646E+01   3.053E+01  1.032E+00 
6.733E+01   3.074E+01  1.023E+00 
6.820E+01   3.095E+01  1.015E+00 
6.909E+01   3.117E+01  1.007E+00 
6.999E+01   3.138E+01  9.995E-01 
7.090E+01   3.159E+01  9.916E-01 
7.182E+01   3.181E+01  9.837E-01 
7.275E+01   3.203E+01  9.759E-01 
7.370E+01   3.224E+01  9.681E-01 
7.465E+01   3.246E+01  9.604E-01 
7.562E+01   3.269E+01  9.527E-01 
7.661E+01   3.291E+01  9.450E-01 
7.760E+01   3.313E+01  9.374E-01 
7.861E+01   3.336E+01  9.299E-01 
7.963E+01   3.358E+01  9.224E-01 
8.067E+01   3.381E+01  9.149E-01 
8.172E+01   3.404E+01  9.075E-01 
8.278E+01   3.427E+01  9.001E-01 
8.385E+01   3.450E+01  8.928E-01 
8.494E+01   3.473E+01  8.855E-01 
8.605E+01   3.496E+01  8.782E-01 
8.717E+01   3.520E+01  8.710E-01 
8.830E+01   3.543E+01  8.639E-01 
8.945E+01   3.567E+01  8.567E-01 
9.061E+01   3.591E+01  8.497E-01 
9.179E+01   3.615E+01  8.426E-01 
9.298E+01   3.639E+01  8.357E-01 
9.419E+01   3.663E+01  8.287E-01 
9.541E+01   3.688E+01  8.218E-01 
9.665E+01   3.712E+01  8.150E-01 
9.791E+01   3.737E+01  8.082E-01 
9.918E+01   3.761E+01  8.014E-01 
1.005E+02   3.786E+01  7.947E-01 
1.018E+02   3.811E+01  7.880E-01 
1.031E+02   3.836E+01  7.814E-01 
1.044E+02   3.861E+01  7.748E-01 
1.058E+02   3.887E+01  7.682E-01 
1.072E+02   3.912E+01  7.617E-01 
1.086E+02   3.937E+01  7.553E-01 
1.100E+02   3.963E+01  7.488E-01 
1.114E+02   3.989E+01  7.425E-01 
1.129E+02   4.014E+01  7.361E-01 
1.143E+02   4.040E+01  7.298E-01 
1.158E+02   4.066E+01  7.236E-01 
1.173E+02   4.092E+01  7.174E-01 
1.188E+02   4.119E+01  7.112E-01 
1.204E+02   4.145E+01  7.051E-01 
1.219E+02   4.171E+01  6.990E-01 
1.235E+02   4.198E+01  6.930E-01 
1.251E+02   4.224E+01  6.870E-01 
1.268E+02   4.251E+01  6.810E-01 
1.284E+02   4.278E+01  6.751E-01 
1.301E+02   4.304E+01  6.692E-01 
1.318E+02   4.331E+01  6.634E-01 
1.335E+02   4.358E+01  6.576E-01 
1.352E+02   4.385E+01  6.519E-01 
1.370E+02   4.412E+01  6.462E-01 
1.388E+02   4.439E+01  6.405E-01 
1.406E+02   4.467E+01  6.349E-01 
1.424E+02   4.494E+01  6.293E-01 
1.442E+02   4.521E+01  6.237E-01 
1.461E+02   4.548E+01  6.182E-01 
1.480E+02   4.576E+01  6.128E-01 
1.499E+02   4.603E+01  6.073E-01 
1.519E+02   4.631E+01  6.019E-01 
1.539E+02   4.658E+01  5.966E-01 
1.559E+02   4.686E+01  5.913E-01 
1.579E+02   4.714E+01  5.860E-01 
1.599E+02   4.741E+01  5.808E-01 
1.620E+02   4.769E+01  5.756E-01 
1.641E+02   4.796E+01  5.704E-01 
1.662E+02   4.824E+01  5.653E-01 
1.684E+02   4.852E+01  5.603E-01 
1.706E+02   4.879E+01  5.552E-01 
1.728E+02   4.907E+01  5.502E-01 
1.751E+02   4.935E+01  5.453E-01 
1.773E+02   4.963E+01  5.403E-01 
1.796E+02   4.990E+01  5.355E-01 
1.820E+02   5.018E+01  5.306E-01 
1.843E+02   5.045E+01  5.258E-01 
1.867E+02   5.073E+01  5.210E-01 
1.892E+02   5.101E+01  5.163E-01 
1.916E+02   5.128E+01  5.116E-01 
1.941E+02   5.156E+01  5.069E-01 
1.966E+02   5.183E+01  5.023E-01 
1.992E+02   5.210E+01  4.908E-01 
2.018E+02   5.238E+01  4.863E-01 
2.044E+02   5.265E+01  4.819E-01 
2.071E+02   5.292E+01  4.775E-01 
2.097E+02   5.319E+01  4.732E-01 
2.125E+02   5.346E+01  4.688E-01 
2.152E+02   5.373E+01  4.645E-01 
2.180E+02   5.400E+01  4.603E-01 
2.209E+02   5.427E+01  4.560E-01 
2.237E+02   5.454E+01  4.518E-01 
2.266E+02   5.480E+01  4.477E-01 
2.296E+02   5.507E+01  4.435E-01 
2.326E+02   5.533E+01  4.394E-01 
2.356E+02   5.559E+01  4.354E-01 
2.387E+02   5.585E+01  4.313E-01 
2.418E+02   5.611E+01  4.273E-01 
2.449E+02   5.637E+01  4.234E-01 
2.481E+02   5.663E+01  4.194E-01 
2.513E+02   5.689E+01  4.155E-01 
2.546E+02   5.714E+01  4.116E-01 
2.579E+02   5.740E+01  4.078E-01 
2.612E+02   5.765E+01  4.040E-01 
2.646E+02   5.790E+01  4.002E-01 
2.681E+02   5.815E+01  3.964E-01 
2.716E+02   5.840E+01  3.927E-01 
2.751E+02   5.865E+01  3.890E-01 
2.787E+02   5.889E+01  3.854E-01 
2.823E+02   5.913E+01  3.817E-01 
2.859E+02   5.938E+01  3.781E-01 
2.897E+02   5.962E+01  3.746E-01 
2.934E+02   5.985E+01  3.710E-01 
2.972E+02   6.009E+01  3.675E-01 
3.011E+02   6.033E+01  3.640E-01 
3.050E+02   6.056E+01  3.606E-01 
3.090E+02   6.079E+01  3.571E-01 
3.130E+02   6.102E+01  3.537E-01 
3.171E+02   6.125E+01  3.504E-01 
3.212E+02   6.148E+01  3.470E-01 
3.254E+02   6.170E+01  3.437E-01 
3.296E+02   6.193E+01  3.404E-01 
3.339E+02   6.215E+01  3.372E-01 
3.382E+02   6.237E+01  3.339E-01 
3.426E+02   6.259E+01  3.307E-01 
3.471E+02   6.280E+01  3.275E-01 
3.516E+02   6.302E+01  3.244E-01 
3.561E+02   6.323E+01  3.213E-01 
3.608E+02   6.344E+01  3.182E-01 
3.655E+02   6.365E+01  3.151E-01 
3.702E+02   6.386E+01  3.121E-01 
3.750E+02   6.406E+01  3.090E-01 
3.799E+02   6.427E+01  3.061E-01 
3.848E+02   6.447E+01  3.031E-01 
3.898E+02   6.467E+01  3.001E-01 
3.949E+02   6.487E+01  2.972E-01 
4.000E+02   6.506E+01  2.943E-01 
4.052E+02   6.526E+01  2.915E-01 
4.105E+02   6.545E+01  2.886E-01 
4.158E+02   6.564E+01  2.858E-01 
4.212E+02   6.583E+01  2.830E-01 
4.267E+02   6.602E+01  2.803E-01 
4.323E+02   6.621E+01  2.775E-01 
4.379E+02   6.639E+01  2.748E-01 
4.436E+02   6.658E+01  2.721E-01 
4.493E+02   6.676E+01  2.695E-01 
4.552E+02   6.694E+01  2.668E-01 
4.611E+02   6.711E+01  2.642E-01 
4.671E+02   6.729E+01  2.616E-01 
4.731E+02   6.746E+01  2.590E-01 
4.793E+02   6.763E+01  2.565E-01 
4.855E+02   6.780E+01  2.539E-01 
4.918E+02   6.797E+01  2.514E-01 
4.982E+02   6.814E+01  2.490E-01 
5.047E+02   6.830E+01  2.465E-01 
5.113E+02   6.846E+01  2.441E-01 
5.179E+02   6.862E+01  2.416E-01 
5.246E+02   6.878E+01  2.392E-01 
5.315E+02   6.894E+01  2.369E-01 
5.384E+02   6.909E+01  2.345E-01 
5.454E+02   6.925E+01  2.322E-01 
5.524E+02   6.940E+01  2.299E-01 
5.596E+02   6.955E+01  2.276E-01 
5.669E+02   6.969E+01  2.253E-01 
5.743E+02   6.984E+01  2.231E-01 
5.817E+02   6.998E+01  2.209E-01 
5.893E+02   7.012E+01  2.187E-01 
5.969E+02   7.025E+01  2.165E-01 
6.047E+02   7.039E+01  2.143E-01 
6.126E+02   7.052E+01  2.122E-01 
6.205E+02   7.065E+01  2.100E-01 
6.286E+02   7.078E+01  2.079E-01 
6.368E+02   7.091E+01  2.058E-01 
6.450E+02   7.103E+01  2.038E-01 
6.534E+02   7.115E+01  2.017E-01 
6.619E+02   7.127E+01  1.997E-01 
6.705E+02   7.139E+01  1.977E-01 
6.792E+02   7.150E+01  1.957E-01 
6.881E+02   7.161E+01  1.937E-01 
6.970E+02   7.172E+01  1.918E-01 
7.061E+02   7.182E+01  1.898E-01 
7.152E+02   7.192E+01  1.879E-01 
7.245E+02   7.202E+01  1.860E-01 
7.339E+02   7.212E+01  1.841E-01 
7.435E+02   7.221E+01  1.823E-01 
7.531E+02   7.230E+01  1.804E-01 
7.629E+02   7.239E+01  1.786E-01 
7.728E+02   7.248E+01  1.768E-01 
7.829E+02   7.256E+01  1.750E-01 
7.931E+02   7.264E+01  1.732E-01 
8.034E+02   7.271E+01  1.714E-01 
8.138E+02   7.278E+01  1.697E-01 
8.244E+02   7.285E+01  1.680E-01 
8.351E+02   7.292E+01  1.663E-01 
8.460E+02   7.298E+01  1.646E-01 
8.570E+02   7.304E+01  1.629E-01 
8.681E+02   7.309E+01  1.612E-01 
8.794E+02   7.314E+01  1.596E-01 
8.908E+02   7.319E+01  1.579E-01 
9.024E+02   7.323E+01  1.563E-01 
9.141E+02   7.327E+01  1.547E-01 
9.260E+02   7.331E+01  1.531E-01 
9.380E+02   7.334E+01  1.516E-01 
9.502E+02   7.337E+01  1.500E-01 
9.626E+02   7.340E+01  1.485E-01 
9.751E+02   7.342E+01  1.469E-01 
9.877E+02   7.344E+01  1.454E-01 
1.001E+03   7.345E+01  1.439E-01 
1.014E+03   7.346E+01  1.425E-01 
1.027E+03   7.346E+01  1.410E-01 
1.040E+03   7.346E+01  1.395E-01 
1.054E+03   7.346E+01  1.381E-01 
1.067E+03   7.346E+01  1.367E-01 
1.081E+03   7.344E+01  1.353E-01 
1.095E+03   7.343E+01  1.339E-01 
1.109E+03   7.341E+01  1.325E-01 
1.124E+03   7.339E+01  1.311E-01 
1.138E+03   7.336E+01  1.298E-01 
1.153E+03   7.333E+01  1.284E-01 
1.168E+03   7.329E+01  1.271E-01 
1.183E+03   7.325E+01  1.258E-01 
1.199E+03   7.320E+01  1.245E-01 
1.214E+03   7.315E+01  1.232E-01 
1.230E+03   7.310E+01  1.219E-01 
1.246E+03   7.304E+01  1.206E-01 
1.262E+03   7.298E+01  1.194E-01 
1.279E+03   7.291E+01  1.181E-01 
1.295E+03   7.284E+01  1.169E-01 
1.312E+03   7.276E+01  1.157E-01 
1.329E+03   7.268E+01  1.145E-01 
1.347E+03   7.260E+01  1.133E-01 
1.364E+03   7.251E+01  1.121E-01 
1.382E+03   7.241E+01  1.109E-01 
1.400E+03   7.231E+01  1.098E-01 
1.418E+03   7.221E+01  1.086E-01 
1.436E+03   7.210E+01  1.075E-01 
1.455E+03   7.199E+01  1.064E-01 
1.474E+03   7.187E+01  1.052E-01 
1.493E+03   7.175E+01  1.041E-01 
1.513E+03   7.163E+01  1.030E-01 
1.532E+03   7.150E+01  1.020E-01 
1.552E+03   7.136E+01  1.009E-01 
1.572E+03   7.123E+01  9.984E-02 
1.593E+03   7.108E+01  9.879E-02 
1.613E+03   7.093E+01  9.775E-02 
1.634E+03   7.078E+01  9.672E-02 
1.656E+03   7.063E+01  9.571E-02 
1.677E+03   7.047E+01  9.470E-02 
1.699E+03   7.030E+01  9.370E-02 
1.721E+03   7.013E+01  9.272E-02 
1.743E+03   6.996E+01  9.174E-02 
1.766E+03   6.978E+01  9.077E-02 
1.789E+03   6.960E+01  8.981E-02 
1.812E+03   6.942E+01  8.887E-02 
1.836E+03   6.923E+01  8.793E-02 
1.860E+03   6.903E+01  8.700E-02 
