Ion = Hydrogen    . Mass = 1.0079
Tgt = Rb (Solid). Density = 1.532 g/cm3
Stopping Units =  eV/(1E15 atoms/cm2)
Energy(keV)  S(Elec)    S(Nuc)
1.000E+00   7.764E+00  3.673E-01 
1.012E+00   7.809E+00  3.674E-01 
1.023E+00   7.855E+00  3.674E-01 
1.035E+00   7.900E+00  3.675E-01 
1.047E+00   7.946E+00  3.675E-01 
1.059E+00   7.992E+00  3.676E-01 
1.072E+00   8.038E+00  3.676E-01 
1.084E+00   8.084E+00  3.676E-01 
1.097E+00   8.131E+00  3.676E-01 
1.109E+00   8.178E+00  3.676E-01 
1.122E+00   8.225E+00  3.676E-01 
1.135E+00   8.273E+00  3.676E-01 
1.148E+00   8.321E+00  3.676E-01 
1.162E+00   8.369E+00  3.676E-01 
1.175E+00   8.417E+00  3.676E-01 
1.189E+00   8.466E+00  3.675E-01 
1.203E+00   8.515E+00  3.675E-01 
1.217E+00   8.564E+00  3.674E-01 
1.231E+00   8.614E+00  3.674E-01 
1.245E+00   8.663E+00  3.673E-01 
1.259E+00   8.714E+00  3.672E-01 
1.274E+00   8.764E+00  3.672E-01 
1.289E+00   8.815E+00  3.671E-01 
1.304E+00   8.866E+00  3.670E-01 
1.319E+00   8.917E+00  3.669E-01 
1.334E+00   8.968E+00  3.668E-01 
1.350E+00   9.020E+00  3.667E-01 
1.365E+00   9.072E+00  3.665E-01 
1.381E+00   9.125E+00  3.664E-01 
1.397E+00   9.178E+00  3.663E-01 
1.413E+00   9.231E+00  3.661E-01 
1.430E+00   9.284E+00  3.660E-01 
1.446E+00   9.338E+00  3.658E-01 
1.463E+00   9.392E+00  3.656E-01 
1.480E+00   9.446E+00  3.655E-01 
1.497E+00   9.501E+00  3.653E-01 
1.515E+00   9.556E+00  3.651E-01 
1.532E+00   9.611E+00  3.649E-01 
1.550E+00   9.667E+00  3.647E-01 
1.568E+00   9.722E+00  3.645E-01 
1.586E+00   9.779E+00  3.643E-01 
1.605E+00   9.835E+00  3.640E-01 
1.623E+00   9.892E+00  3.638E-01 
1.642E+00   9.949E+00  3.635E-01 
1.661E+00   1.001E+01  3.633E-01 
1.680E+00   1.006E+01  3.630E-01 
1.700E+00   1.012E+01  3.628E-01 
1.719E+00   1.018E+01  3.625E-01 
1.739E+00   1.024E+01  3.622E-01 
1.760E+00   1.030E+01  3.619E-01 
1.780E+00   1.036E+01  3.616E-01 
1.801E+00   1.042E+01  3.613E-01 
1.822E+00   1.048E+01  3.610E-01 
1.843E+00   1.054E+01  3.607E-01 
1.864E+00   1.060E+01  3.604E-01 
1.886E+00   1.066E+01  3.600E-01 
1.908E+00   1.072E+01  3.597E-01 
1.930E+00   1.079E+01  3.593E-01 
1.952E+00   1.085E+01  3.590E-01 
1.975E+00   1.091E+01  3.586E-01 
1.998E+00   1.097E+01  3.582E-01 
2.021E+00   1.104E+01  3.578E-01 
2.044E+00   1.109E+01  3.575E-01 
2.068E+00   1.114E+01  3.571E-01 
2.092E+00   1.120E+01  3.567E-01 
2.116E+00   1.125E+01  3.562E-01 
2.141E+00   1.130E+01  3.558E-01 
2.166E+00   1.136E+01  3.554E-01 
2.191E+00   1.142E+01  3.550E-01 
2.216E+00   1.147E+01  3.545E-01 
2.242E+00   1.153E+01  3.541E-01 
2.268E+00   1.158E+01  3.536E-01 
2.294E+00   1.164E+01  3.531E-01 
2.321E+00   1.170E+01  3.527E-01 
2.348E+00   1.176E+01  3.522E-01 
2.375E+00   1.181E+01  3.517E-01 
2.402E+00   1.187E+01  3.512E-01 
2.430E+00   1.193E+01  3.507E-01 
2.458E+00   1.199E+01  3.502E-01 
2.487E+00   1.205E+01  3.497E-01 
2.516E+00   1.211E+01  3.492E-01 
2.545E+00   1.217E+01  3.486E-01 
2.574E+00   1.223E+01  3.481E-01 
2.604E+00   1.229E+01  3.475E-01 
2.635E+00   1.235E+01  3.470E-01 
2.665E+00   1.241E+01  3.464E-01 
2.696E+00   1.248E+01  3.458E-01 
2.727E+00   1.254E+01  3.453E-01 
2.759E+00   1.260E+01  3.447E-01 
2.791E+00   1.266E+01  3.441E-01 
2.823E+00   1.273E+01  3.435E-01 
2.856E+00   1.279E+01  3.429E-01 
2.889E+00   1.285E+01  3.423E-01 
2.923E+00   1.292E+01  3.417E-01 
2.957E+00   1.298E+01  3.410E-01 
2.991E+00   1.305E+01  3.404E-01 
3.026E+00   1.311E+01  3.397E-01 
3.061E+00   1.317E+01  3.391E-01 
3.096E+00   1.324E+01  3.384E-01 
3.132E+00   1.331E+01  3.378E-01 
3.168E+00   1.337E+01  3.371E-01 
3.205E+00   1.344E+01  3.364E-01 
3.242E+00   1.350E+01  3.357E-01 
3.280E+00   1.357E+01  3.351E-01 
3.318E+00   1.363E+01  3.344E-01 
3.356E+00   1.370E+01  3.337E-01 
3.395E+00   1.377E+01  3.329E-01 
3.435E+00   1.383E+01  3.322E-01 
3.475E+00   1.390E+01  3.315E-01 
3.515E+00   1.397E+01  3.308E-01 
3.556E+00   1.403E+01  3.300E-01 
3.597E+00   1.410E+01  3.293E-01 
3.639E+00   1.417E+01  3.285E-01 
3.681E+00   1.423E+01  3.278E-01 
3.724E+00   1.430E+01  3.270E-01 
3.767E+00   1.437E+01  3.262E-01 
3.810E+00   1.443E+01  3.255E-01 
3.855E+00   1.450E+01  3.247E-01 
3.899E+00   1.457E+01  3.239E-01 
3.945E+00   1.463E+01  3.231E-01 
3.990E+00   1.470E+01  3.223E-01 
4.037E+00   1.476E+01  3.215E-01 
4.083E+00   1.483E+01  3.207E-01 
4.131E+00   1.489E+01  3.199E-01 
4.179E+00   1.496E+01  3.190E-01 
4.227E+00   1.502E+01  3.182E-01 
4.276E+00   1.509E+01  3.174E-01 
4.326E+00   1.515E+01  3.165E-01 
4.376E+00   1.522E+01  3.157E-01 
4.427E+00   1.528E+01  3.148E-01 
4.478E+00   1.535E+01  3.139E-01 
4.530E+00   1.541E+01  3.131E-01 
4.583E+00   1.547E+01  3.122E-01 
4.636E+00   1.553E+01  3.113E-01 
4.690E+00   1.560E+01  3.104E-01 
4.744E+00   1.566E+01  3.096E-01 
4.799E+00   1.572E+01  3.087E-01 
4.855E+00   1.578E+01  3.078E-01 
4.911E+00   1.584E+01  3.069E-01 
4.968E+00   1.590E+01  3.059E-01 
5.026E+00   1.596E+01  3.050E-01 
5.084E+00   1.603E+01  3.041E-01 
5.143E+00   1.609E+01  3.032E-01 
5.202E+00   1.614E+01  3.023E-01 
5.263E+00   1.620E+01  3.013E-01 
5.324E+00   1.626E+01  3.004E-01 
5.386E+00   1.632E+01  2.994E-01 
5.448E+00   1.638E+01  2.985E-01 
5.511E+00   1.644E+01  2.975E-01 
5.575E+00   1.650E+01  2.966E-01 
5.640E+00   1.656E+01  2.956E-01 
5.705E+00   1.662E+01  2.947E-01 
5.771E+00   1.667E+01  2.937E-01 
5.838E+00   1.673E+01  2.927E-01 
5.906E+00   1.679E+01  2.917E-01 
5.975E+00   1.685E+01  2.907E-01 
6.044E+00   1.691E+01  2.898E-01 
6.114E+00   1.697E+01  2.888E-01 
6.185E+00   1.703E+01  2.878E-01 
6.257E+00   1.709E+01  2.868E-01 
6.329E+00   1.715E+01  2.858E-01 
6.403E+00   1.721E+01  2.848E-01 
6.477E+00   1.727E+01  2.837E-01 
6.552E+00   1.734E+01  2.827E-01 
6.628E+00   1.740E+01  2.817E-01 
6.705E+00   1.746E+01  2.807E-01 
6.783E+00   1.753E+01  2.797E-01 
6.861E+00   1.760E+01  2.786E-01 
6.941E+00   1.766E+01  2.776E-01 
7.021E+00   1.773E+01  2.766E-01 
7.103E+00   1.780E+01  2.755E-01 
7.185E+00   1.787E+01  2.745E-01 
7.269E+00   1.795E+01  2.735E-01 
7.353E+00   1.802E+01  2.724E-01 
7.438E+00   1.810E+01  2.714E-01 
7.524E+00   1.817E+01  2.703E-01 
7.612E+00   1.825E+01  2.692E-01 
7.700E+00   1.833E+01  2.682E-01 
7.789E+00   1.842E+01  2.671E-01 
7.880E+00   1.850E+01  2.661E-01 
7.971E+00   1.859E+01  2.650E-01 
8.064E+00   1.868E+01  2.639E-01 
8.157E+00   1.877E+01  2.629E-01 
8.252E+00   1.886E+01  2.618E-01 
8.347E+00   1.895E+01  2.607E-01 
8.444E+00   1.905E+01  2.596E-01 
8.542E+00   1.915E+01  2.586E-01 
8.641E+00   1.925E+01  2.575E-01 
8.741E+00   1.935E+01  2.564E-01 
8.843E+00   1.946E+01  2.553E-01 
8.945E+00   1.957E+01  2.542E-01 
9.049E+00   1.968E+01  2.531E-01 
9.154E+00   1.979E+01  2.521E-01 
9.260E+00   1.991E+01  2.510E-01 
9.368E+00   2.002E+01  2.499E-01 
9.476E+00   2.014E+01  2.488E-01 
9.586E+00   2.027E+01  2.477E-01 
9.698E+00   2.039E+01  2.466E-01 
9.810E+00   2.052E+01  2.455E-01 
9.924E+00   2.065E+01  2.444E-01 
1.004E+01   2.078E+01  2.433E-01 
1.016E+01   2.092E+01  2.422E-01 
1.027E+01   2.105E+01  2.411E-01 
1.039E+01   2.119E+01  2.400E-01 
1.051E+01   2.134E+01  2.389E-01 
1.063E+01   2.148E+01  2.378E-01 
1.076E+01   2.163E+01  2.367E-01 
1.088E+01   2.178E+01  2.356E-01 
1.101E+01   2.193E+01  2.345E-01 
1.114E+01   2.209E+01  2.334E-01 
1.127E+01   2.224E+01  2.323E-01 
1.140E+01   2.240E+01  2.312E-01 
1.153E+01   2.256E+01  2.301E-01 
1.166E+01   2.273E+01  2.290E-01 
1.180E+01   2.289E+01  2.279E-01 
1.193E+01   2.306E+01  2.268E-01 
1.207E+01   2.323E+01  2.257E-01 
1.221E+01   2.341E+01  2.246E-01 
1.235E+01   2.358E+01  2.234E-01 
1.250E+01   2.376E+01  2.223E-01 
1.264E+01   2.394E+01  2.212E-01 
1.279E+01   2.412E+01  2.201E-01 
1.294E+01   2.430E+01  2.190E-01 
1.309E+01   2.449E+01  2.179E-01 
1.324E+01   2.468E+01  2.168E-01 
1.339E+01   2.487E+01  2.157E-01 
1.355E+01   2.506E+01  2.146E-01 
1.371E+01   2.525E+01  2.135E-01 
1.387E+01   2.545E+01  2.124E-01 
1.403E+01   2.564E+01  2.113E-01 
1.419E+01   2.584E+01  2.102E-01 
1.435E+01   2.604E+01  2.091E-01 
1.452E+01   2.625E+01  2.080E-01 
1.469E+01   2.645E+01  2.070E-01 
1.486E+01   2.666E+01  2.059E-01 
1.503E+01   2.687E+01  2.048E-01 
1.521E+01   2.708E+01  2.037E-01 
1.538E+01   2.729E+01  2.026E-01 
1.556E+01   2.750E+01  2.015E-01 
1.574E+01   2.771E+01  2.004E-01 
1.592E+01   2.793E+01  1.993E-01 
1.611E+01   2.815E+01  1.982E-01 
1.629E+01   2.836E+01  1.972E-01 
1.648E+01   2.858E+01  1.961E-01 
1.667E+01   2.880E+01  1.950E-01 
1.687E+01   2.903E+01  1.939E-01 
1.706E+01   2.925E+01  1.929E-01 
1.726E+01   2.947E+01  1.918E-01 
1.746E+01   2.970E+01  1.907E-01 
1.766E+01   2.992E+01  1.896E-01 
1.787E+01   3.015E+01  1.886E-01 
1.808E+01   3.038E+01  1.875E-01 
1.829E+01   3.061E+01  1.865E-01 
1.850E+01   3.084E+01  1.854E-01 
1.871E+01   3.107E+01  1.843E-01 
1.893E+01   3.130E+01  1.833E-01 
1.915E+01   3.153E+01  1.822E-01 
1.937E+01   3.177E+01  1.812E-01 
1.960E+01   3.200E+01  1.801E-01 
1.982E+01   3.223E+01  1.791E-01 
2.005E+01   3.247E+01  1.780E-01 
2.029E+01   3.270E+01  1.770E-01 
2.052E+01   3.294E+01  1.760E-01 
2.076E+01   3.317E+01  1.749E-01 
2.100E+01   3.341E+01  1.739E-01 
2.124E+01   3.365E+01  1.729E-01 
2.149E+01   3.388E+01  1.718E-01 
2.174E+01   3.412E+01  1.708E-01 
2.199E+01   3.435E+01  1.698E-01 
2.225E+01   3.459E+01  1.688E-01 
2.250E+01   3.482E+01  1.677E-01 
2.277E+01   3.506E+01  1.667E-01 
2.303E+01   3.529E+01  1.657E-01 
2.330E+01   3.553E+01  1.647E-01 
2.357E+01   3.576E+01  1.637E-01 
2.384E+01   3.600E+01  1.627E-01 
2.412E+01   3.623E+01  1.617E-01 
2.440E+01   3.646E+01  1.607E-01 
2.468E+01   3.670E+01  1.597E-01 
2.497E+01   3.693E+01  1.587E-01 
2.526E+01   3.716E+01  1.577E-01 
2.555E+01   3.739E+01  1.567E-01 
2.584E+01   3.761E+01  1.558E-01 
2.614E+01   3.784E+01  1.548E-01 
2.645E+01   3.807E+01  1.538E-01 
2.675E+01   3.829E+01  1.528E-01 
2.707E+01   3.852E+01  1.519E-01 
2.738E+01   3.874E+01  1.509E-01 
2.770E+01   3.896E+01  1.500E-01 
2.802E+01   3.918E+01  1.490E-01 
2.834E+01   3.940E+01  1.480E-01 
2.867E+01   3.962E+01  1.471E-01 
2.900E+01   3.983E+01  1.461E-01 
2.934E+01   4.004E+01  1.452E-01 
2.968E+01   4.025E+01  1.443E-01 
3.003E+01   4.046E+01  1.433E-01 
3.037E+01   4.067E+01  1.424E-01 
3.073E+01   4.088E+01  1.415E-01 
3.108E+01   4.108E+01  1.405E-01 
3.144E+01   4.128E+01  1.396E-01 
3.181E+01   4.148E+01  1.387E-01 
3.218E+01   4.168E+01  1.378E-01 
3.255E+01   4.187E+01  1.369E-01 
3.293E+01   4.206E+01  1.360E-01 
3.331E+01   4.225E+01  1.351E-01 
3.370E+01   4.244E+01  1.342E-01 
3.409E+01   4.263E+01  1.333E-01 
3.448E+01   4.281E+01  1.324E-01 
3.488E+01   4.299E+01  1.315E-01 
3.529E+01   4.316E+01  1.306E-01 
3.570E+01   4.334E+01  1.297E-01 
3.611E+01   4.351E+01  1.288E-01 
3.653E+01   4.367E+01  1.280E-01 
3.695E+01   4.384E+01  1.271E-01 
3.738E+01   4.400E+01  1.262E-01 
3.781E+01   4.416E+01  1.254E-01 
3.825E+01   4.431E+01  1.245E-01 
3.870E+01   4.447E+01  1.237E-01 
3.915E+01   4.461E+01  1.228E-01 
3.960E+01   4.476E+01  1.220E-01 
4.006E+01   4.490E+01  1.211E-01 
4.052E+01   4.504E+01  1.203E-01 
4.099E+01   4.518E+01  1.194E-01 
4.147E+01   4.531E+01  1.186E-01 
4.195E+01   4.544E+01  1.178E-01 
4.244E+01   4.556E+01  1.170E-01 
4.293E+01   4.568E+01  1.161E-01 
4.343E+01   4.580E+01  1.153E-01 
4.393E+01   4.592E+01  1.145E-01 
4.444E+01   4.603E+01  1.137E-01 
4.496E+01   4.613E+01  1.129E-01 
4.548E+01   4.624E+01  1.121E-01 
4.600E+01   4.634E+01  1.113E-01 
4.654E+01   4.643E+01  1.105E-01 
4.708E+01   4.652E+01  1.097E-01 
4.762E+01   4.661E+01  1.090E-01 
4.818E+01   4.670E+01  1.082E-01 
4.873E+01   4.678E+01  1.074E-01 
4.930E+01   4.685E+01  1.066E-01 
4.987E+01   4.693E+01  1.059E-01 
5.045E+01   4.699E+01  1.051E-01 
5.104E+01   4.706E+01  1.043E-01 
5.163E+01   4.712E+01  1.036E-01 
5.223E+01   4.718E+01  1.028E-01 
5.283E+01   4.723E+01  1.021E-01 
5.344E+01   4.728E+01  1.013E-01 
5.406E+01   4.733E+01  1.006E-01 
5.469E+01   4.737E+01  9.987E-02 
5.533E+01   4.741E+01  9.914E-02 
5.597E+01   4.744E+01  9.841E-02 
5.662E+01   4.747E+01  9.769E-02 
5.727E+01   4.750E+01  9.697E-02 
5.794E+01   4.752E+01  9.625E-02 
5.861E+01   4.754E+01  9.554E-02 
5.929E+01   4.756E+01  9.483E-02 
5.998E+01   4.757E+01  9.413E-02 
6.067E+01   4.758E+01  9.343E-02 
6.138E+01   4.758E+01  9.274E-02 
6.209E+01   4.758E+01  9.204E-02 
6.281E+01   4.758E+01  9.136E-02 
6.354E+01   4.757E+01  9.067E-02 
6.427E+01   4.756E+01  8.999E-02 
6.502E+01   4.755E+01  8.932E-02 
6.577E+01   4.753E+01  8.865E-02 
6.654E+01   4.751E+01  8.798E-02 
6.731E+01   4.748E+01  8.731E-02 
6.809E+01   4.746E+01  8.665E-02 
6.888E+01   4.742E+01  8.600E-02 
6.968E+01   4.739E+01  8.535E-02 
7.049E+01   4.735E+01  8.470E-02 
7.130E+01   4.731E+01  8.405E-02 
7.213E+01   4.726E+01  8.341E-02 
7.297E+01   4.722E+01  8.277E-02 
7.381E+01   4.716E+01  8.214E-02 
7.467E+01   4.711E+01  8.151E-02 
7.554E+01   4.705E+01  8.089E-02 
7.641E+01   4.699E+01  8.027E-02 
7.730E+01   4.693E+01  7.965E-02 
7.820E+01   4.686E+01  7.903E-02 
7.910E+01   4.679E+01  7.842E-02 
8.002E+01   4.672E+01  7.782E-02 
8.095E+01   4.664E+01  7.721E-02 
8.189E+01   4.656E+01  7.662E-02 
8.284E+01   4.648E+01  7.602E-02 
8.380E+01   4.640E+01  7.543E-02 
8.477E+01   4.631E+01  7.484E-02 
8.575E+01   4.622E+01  7.426E-02 
8.675E+01   4.613E+01  7.368E-02 
8.775E+01   4.603E+01  7.310E-02 
8.877E+01   4.593E+01  7.253E-02 
8.980E+01   4.583E+01  7.196E-02 
9.084E+01   4.573E+01  7.139E-02 
9.190E+01   4.563E+01  7.083E-02 
9.296E+01   4.552E+01  7.027E-02 
9.404E+01   4.541E+01  6.972E-02 
9.513E+01   4.530E+01  6.917E-02 
9.624E+01   4.518E+01  6.862E-02 
9.735E+01   4.507E+01  6.808E-02 
9.848E+01   4.495E+01  6.754E-02 
9.962E+01   4.483E+01  6.700E-02 
1.008E+02   4.470E+01  6.647E-02 
1.019E+02   4.458E+01  6.594E-02 
1.031E+02   4.445E+01  6.541E-02 
1.043E+02   4.432E+01  6.489E-02 
1.055E+02   4.419E+01  6.437E-02 
1.068E+02   4.406E+01  6.385E-02 
1.080E+02   4.393E+01  6.334E-02 
1.093E+02   4.379E+01  6.283E-02 
1.105E+02   4.365E+01  6.233E-02 
1.118E+02   4.352E+01  6.182E-02 
1.131E+02   4.337E+01  6.133E-02 
1.144E+02   4.323E+01  6.253E-02 
1.157E+02   4.309E+01  6.202E-02 
1.171E+02   4.294E+01  6.152E-02 
1.184E+02   4.280E+01  6.102E-02 
1.198E+02   4.265E+01  6.052E-02 
1.212E+02   4.250E+01  6.002E-02 
1.226E+02   4.235E+01  5.953E-02 
1.240E+02   4.220E+01  5.905E-02 
1.255E+02   4.204E+01  5.856E-02 
1.269E+02   4.189E+01  5.808E-02 
1.284E+02   4.173E+01  5.760E-02 
1.299E+02   4.158E+01  5.713E-02 
1.314E+02   4.142E+01  5.666E-02 
1.329E+02   4.126E+01  5.619E-02 
1.345E+02   4.110E+01  5.573E-02 
1.360E+02   4.094E+01  5.527E-02 
1.376E+02   4.078E+01  5.481E-02 
1.392E+02   4.061E+01  5.435E-02 
1.408E+02   4.045E+01  5.390E-02 
1.424E+02   4.029E+01  5.346E-02 
1.441E+02   4.012E+01  5.301E-02 
1.458E+02   3.995E+01  5.257E-02 
1.475E+02   3.979E+01  5.213E-02 
1.492E+02   3.962E+01  5.169E-02 
1.509E+02   3.945E+01  5.126E-02 
1.526E+02   3.928E+01  5.083E-02 
1.544E+02   3.912E+01  5.041E-02 
1.562E+02   3.895E+01  4.998E-02 
1.580E+02   3.878E+01  4.956E-02 
1.598E+02   3.860E+01  4.915E-02 
1.617E+02   3.843E+01  4.873E-02 
1.636E+02   3.826E+01  4.832E-02 
1.655E+02   3.809E+01  4.792E-02 
1.674E+02   3.792E+01  4.751E-02 
1.693E+02   3.774E+01  4.711E-02 
1.713E+02   3.757E+01  4.671E-02 
1.733E+02   3.740E+01  4.631E-02 
1.753E+02   3.722E+01  4.592E-02 
1.773E+02   3.705E+01  4.553E-02 
1.794E+02   3.688E+01  4.514E-02 
1.815E+02   3.670E+01  4.476E-02 
1.836E+02   3.653E+01  4.438E-02 
1.857E+02   3.635E+01  4.400E-02 
1.879E+02   3.618E+01  4.362E-02 
1.900E+02   3.600E+01  4.325E-02 
1.922E+02   3.583E+01  4.288E-02 
1.945E+02   3.565E+01  4.251E-02 
1.967E+02   3.548E+01  4.215E-02 
1.990E+02   3.530E+01  4.179E-02 
2.013E+02   3.512E+01  4.143E-02 
2.036E+02   3.495E+01  4.107E-02 
2.060E+02   3.477E+01  4.072E-02 
2.084E+02   3.460E+01  4.037E-02 
2.108E+02   3.442E+01  4.002E-02 
2.133E+02   3.425E+01  3.968E-02 
2.157E+02   3.407E+01  3.933E-02 
2.182E+02   3.390E+01  3.899E-02 
2.208E+02   3.372E+01  3.866E-02 
2.233E+02   3.355E+01  3.832E-02 
2.259E+02   3.337E+01  3.799E-02 
2.285E+02   3.320E+01  3.766E-02 
2.312E+02   3.303E+01  3.733E-02 
2.339E+02   3.285E+01  3.701E-02 
2.366E+02   3.268E+01  3.669E-02 
2.393E+02   3.250E+01  3.637E-02 
2.421E+02   3.233E+01  3.605E-02 
2.449E+02   3.216E+01  3.574E-02 
2.478E+02   3.199E+01  3.542E-02 
2.506E+02   3.181E+01  3.511E-02 
2.535E+02   3.164E+01  3.481E-02 
2.565E+02   3.147E+01  3.450E-02 
2.595E+02   3.130E+01  3.420E-02 
2.625E+02   3.113E+01  3.390E-02 
2.655E+02   3.096E+01  3.360E-02 
2.686E+02   3.079E+01  3.331E-02 
2.717E+02   3.062E+01  3.301E-02 
2.749E+02   3.045E+01  3.272E-02 
2.780E+02   3.028E+01  3.244E-02 
2.813E+02   3.011E+01  3.215E-02 
2.845E+02   2.994E+01  3.187E-02 
2.878E+02   2.977E+01  3.159E-02 
2.912E+02   2.961E+01  3.131E-02 
2.945E+02   2.944E+01  3.103E-02 
2.980E+02   2.927E+01  3.075E-02 
3.014E+02   2.911E+01  3.048E-02 
3.049E+02   2.894E+01  3.021E-02 
3.085E+02   2.878E+01  2.994E-02 
3.120E+02   2.861E+01  2.968E-02 
3.156E+02   2.845E+01  2.942E-02 
3.193E+02   2.828E+01  2.915E-02 
3.230E+02   2.812E+01  2.889E-02 
3.268E+02   2.796E+01  2.864E-02 
3.306E+02   2.780E+01  2.838E-02 
3.344E+02   2.764E+01  2.813E-02 
3.383E+02   2.747E+01  2.788E-02 
3.422E+02   2.731E+01  2.763E-02 
3.462E+02   2.715E+01  2.738E-02 
3.502E+02   2.699E+01  2.714E-02 
3.542E+02   2.684E+01  2.689E-02 
3.583E+02   2.668E+01  2.665E-02 
3.625E+02   2.652E+01  2.642E-02 
3.667E+02   2.636E+01  2.618E-02 
3.710E+02   2.621E+01  2.594E-02 
3.753E+02   2.605E+01  2.571E-02 
3.796E+02   2.590E+01  2.548E-02 
3.840E+02   2.574E+01  2.525E-02 
3.885E+02   2.559E+01  2.502E-02 
3.930E+02   2.543E+01  2.480E-02 
3.975E+02   2.528E+01  2.457E-02 
4.021E+02   2.513E+01  2.435E-02 
4.068E+02   2.498E+01  2.413E-02 
4.115E+02   2.482E+01  2.392E-02 
4.163E+02   2.467E+01  2.370E-02 
4.211E+02   2.452E+01  2.349E-02 
4.260E+02   2.437E+01  2.327E-02 
4.310E+02   2.423E+01  2.306E-02 
4.360E+02   2.408E+01  2.285E-02 
4.410E+02   2.393E+01  2.265E-02 
4.461E+02   2.378E+01  2.244E-02 
4.513E+02   2.364E+01  2.224E-02 
4.565E+02   2.349E+01  2.203E-02 
4.618E+02   2.335E+01  2.183E-02 
4.672E+02   2.320E+01  2.164E-02 
4.726E+02   2.306E+01  2.144E-02 
4.781E+02   2.292E+01  2.124E-02 
4.836E+02   2.277E+01  2.105E-02 
4.892E+02   2.263E+01  2.086E-02 
4.949E+02   2.249E+01  2.067E-02 
5.007E+02   2.235E+01  2.048E-02 
5.065E+02   2.221E+01  2.029E-02 
5.123E+02   2.207E+01  2.011E-02 
5.183E+02   2.193E+01  1.992E-02 
5.243E+02   2.180E+01  1.974E-02 
5.304E+02   2.166E+01  1.956E-02 
5.365E+02   2.152E+01  1.938E-02 
5.428E+02   2.139E+01  1.920E-02 
5.490E+02   2.125E+01  1.903E-02 
5.554E+02   2.112E+01  1.885E-02 
5.619E+02   2.098E+01  1.868E-02 
5.684E+02   2.085E+01  1.851E-02 
5.750E+02   2.072E+01  1.834E-02 
5.816E+02   2.059E+01  1.817E-02 
5.884E+02   2.045E+01  1.800E-02 
5.952E+02   2.032E+01  1.784E-02 
6.021E+02   2.019E+01  1.767E-02 
6.091E+02   2.006E+01  1.751E-02 
6.162E+02   1.994E+01  1.735E-02 
6.233E+02   1.981E+01  1.719E-02 
6.305E+02   1.968E+01  1.703E-02 
6.378E+02   1.955E+01  1.687E-02 
6.452E+02   1.943E+01  1.672E-02 
6.527E+02   1.930E+01  1.656E-02 
6.603E+02   1.918E+01  1.641E-02 
6.680E+02   1.905E+01  1.626E-02 
6.757E+02   1.893E+01  1.611E-02 
6.835E+02   1.881E+01  1.596E-02 
6.915E+02   1.868E+01  1.581E-02 
6.995E+02   1.856E+01  1.566E-02 
7.076E+02   1.844E+01  1.552E-02 
7.158E+02   1.832E+01  1.537E-02 
7.241E+02   1.820E+01  1.523E-02 
7.325E+02   1.808E+01  1.509E-02 
7.410E+02   1.796E+01  1.495E-02 
7.496E+02   1.785E+01  1.481E-02 
7.583E+02   1.773E+01  1.467E-02 
7.671E+02   1.761E+01  1.453E-02 
7.760E+02   1.750E+01  1.440E-02 
7.850E+02   1.738E+01  1.426E-02 
7.941E+02   1.727E+01  1.413E-02 
8.033E+02   1.715E+01  1.400E-02 
8.126E+02   1.704E+01  1.387E-02 
8.221E+02   1.693E+01  1.374E-02 
8.316E+02   1.681E+01  1.361E-02 
