Ion = Hydrogen    . Mass = 1.0079
Tgt = Zr (Solid). Density = 6.49 g/cm3
Stopping Units =  eV/(1E15 atoms/cm2)
Energy(keV)  S(Elec)    S(Nuc)
1.000E+00   7.031E+00  3.761E-01 
1.012E+00   7.071E+00  3.762E-01 
1.023E+00   7.112E+00  3.763E-01 
1.035E+00   7.153E+00  3.764E-01 
1.047E+00   7.195E+00  3.765E-01 
1.059E+00   7.236E+00  3.767E-01 
1.072E+00   7.278E+00  3.767E-01 
1.084E+00   7.320E+00  3.768E-01 
1.097E+00   7.363E+00  3.769E-01 
1.109E+00   7.405E+00  3.770E-01 
1.122E+00   7.448E+00  3.771E-01 
1.135E+00   7.491E+00  3.771E-01 
1.148E+00   7.534E+00  3.772E-01 
1.162E+00   7.578E+00  3.772E-01 
1.175E+00   7.622E+00  3.773E-01 
1.189E+00   7.666E+00  3.773E-01 
1.203E+00   7.710E+00  3.773E-01 
1.217E+00   7.755E+00  3.773E-01 
1.231E+00   7.800E+00  3.773E-01 
1.245E+00   7.845E+00  3.773E-01 
1.259E+00   7.890E+00  3.773E-01 
1.274E+00   7.936E+00  3.773E-01 
1.289E+00   7.982E+00  3.773E-01 
1.304E+00   8.028E+00  3.773E-01 
1.319E+00   8.074E+00  3.772E-01 
1.334E+00   8.121E+00  3.772E-01 
1.350E+00   8.168E+00  3.771E-01 
1.365E+00   8.215E+00  3.771E-01 
1.381E+00   8.263E+00  3.770E-01 
1.397E+00   8.310E+00  3.769E-01 
1.413E+00   8.358E+00  3.768E-01 
1.430E+00   8.407E+00  3.767E-01 
1.446E+00   8.455E+00  3.766E-01 
1.463E+00   8.504E+00  3.765E-01 
1.480E+00   8.553E+00  3.764E-01 
1.497E+00   8.603E+00  3.763E-01 
1.515E+00   8.653E+00  3.762E-01 
1.532E+00   8.703E+00  3.760E-01 
1.550E+00   8.753E+00  3.759E-01 
1.568E+00   8.804E+00  3.757E-01 
1.586E+00   8.855E+00  3.756E-01 
1.605E+00   8.906E+00  3.754E-01 
1.623E+00   8.957E+00  3.752E-01 
1.642E+00   9.009E+00  3.750E-01 
1.661E+00   9.061E+00  3.748E-01 
1.680E+00   9.114E+00  3.746E-01 
1.700E+00   9.166E+00  3.744E-01 
1.719E+00   9.219E+00  3.742E-01 
1.739E+00   9.273E+00  3.740E-01 
1.760E+00   9.326E+00  3.738E-01 
1.780E+00   9.380E+00  3.735E-01 
1.801E+00   9.434E+00  3.733E-01 
1.822E+00   9.489E+00  3.730E-01 
1.843E+00   9.544E+00  3.727E-01 
1.864E+00   9.599E+00  3.725E-01 
1.886E+00   9.655E+00  3.722E-01 
1.908E+00   9.710E+00  3.719E-01 
1.930E+00   9.767E+00  3.716E-01 
1.952E+00   9.823E+00  3.713E-01 
1.975E+00   9.880E+00  3.710E-01 
1.998E+00   9.937E+00  3.707E-01 
2.021E+00   9.993E+00  3.703E-01 
2.044E+00   1.004E+01  3.700E-01 
2.068E+00   1.010E+01  3.696E-01 
2.092E+00   1.015E+01  3.693E-01 
2.116E+00   1.020E+01  3.689E-01 
2.141E+00   1.025E+01  3.685E-01 
2.166E+00   1.030E+01  3.682E-01 
2.191E+00   1.036E+01  3.678E-01 
2.216E+00   1.041E+01  3.674E-01 
2.242E+00   1.046E+01  3.670E-01 
2.268E+00   1.052E+01  3.666E-01 
2.294E+00   1.057E+01  3.662E-01 
2.321E+00   1.062E+01  3.657E-01 
2.348E+00   1.068E+01  3.653E-01 
2.375E+00   1.073E+01  3.648E-01 
2.402E+00   1.079E+01  3.644E-01 
2.430E+00   1.084E+01  3.639E-01 
2.458E+00   1.090E+01  3.635E-01 
2.487E+00   1.096E+01  3.630E-01 
2.516E+00   1.101E+01  3.625E-01 
2.545E+00   1.107E+01  3.620E-01 
2.574E+00   1.113E+01  3.615E-01 
2.604E+00   1.118E+01  3.610E-01 
2.635E+00   1.124E+01  3.605E-01 
2.665E+00   1.130E+01  3.600E-01 
2.696E+00   1.136E+01  3.594E-01 
2.727E+00   1.141E+01  3.589E-01 
2.759E+00   1.147E+01  3.584E-01 
2.791E+00   1.153E+01  3.578E-01 
2.823E+00   1.159E+01  3.572E-01 
2.856E+00   1.165E+01  3.567E-01 
2.889E+00   1.171E+01  3.561E-01 
2.923E+00   1.177E+01  3.555E-01 
2.957E+00   1.183E+01  3.549E-01 
2.991E+00   1.189E+01  3.543E-01 
3.026E+00   1.195E+01  3.537E-01 
3.061E+00   1.202E+01  3.531E-01 
3.096E+00   1.208E+01  3.525E-01 
3.132E+00   1.214E+01  3.518E-01 
3.168E+00   1.220E+01  3.512E-01 
3.205E+00   1.227E+01  3.505E-01 
3.242E+00   1.233E+01  3.499E-01 
3.280E+00   1.239E+01  3.492E-01 
3.318E+00   1.246E+01  3.486E-01 
3.356E+00   1.252E+01  3.479E-01 
3.395E+00   1.259E+01  3.472E-01 
3.435E+00   1.265E+01  3.465E-01 
3.475E+00   1.272E+01  3.458E-01 
3.515E+00   1.278E+01  3.451E-01 
3.556E+00   1.285E+01  3.444E-01 
3.597E+00   1.291E+01  3.437E-01 
3.639E+00   1.298E+01  3.429E-01 
3.681E+00   1.305E+01  3.422E-01 
3.724E+00   1.312E+01  3.415E-01 
3.767E+00   1.318E+01  3.407E-01 
3.810E+00   1.325E+01  3.400E-01 
3.855E+00   1.332E+01  3.392E-01 
3.899E+00   1.339E+01  3.384E-01 
3.945E+00   1.346E+01  3.377E-01 
3.990E+00   1.353E+01  3.369E-01 
4.037E+00   1.360E+01  3.361E-01 
4.083E+00   1.367E+01  3.353E-01 
4.131E+00   1.374E+01  3.345E-01 
4.179E+00   1.381E+01  3.337E-01 
4.227E+00   1.388E+01  3.329E-01 
4.276E+00   1.395E+01  3.320E-01 
4.326E+00   1.402E+01  3.312E-01 
4.376E+00   1.410E+01  3.304E-01 
4.427E+00   1.417E+01  3.295E-01 
4.478E+00   1.424E+01  3.287E-01 
4.530E+00   1.432E+01  3.278E-01 
4.583E+00   1.439E+01  3.270E-01 
4.636E+00   1.447E+01  3.261E-01 
4.690E+00   1.454E+01  3.252E-01 
4.744E+00   1.462E+01  3.243E-01 
4.799E+00   1.469E+01  3.235E-01 
4.855E+00   1.477E+01  3.226E-01 
4.911E+00   1.484E+01  3.217E-01 
4.968E+00   1.492E+01  3.208E-01 
5.026E+00   1.500E+01  3.199E-01 
5.084E+00   1.507E+01  3.189E-01 
5.143E+00   1.515E+01  3.180E-01 
5.202E+00   1.523E+01  3.171E-01 
5.263E+00   1.531E+01  3.162E-01 
5.324E+00   1.539E+01  3.152E-01 
5.386E+00   1.547E+01  3.143E-01 
5.448E+00   1.555E+01  3.133E-01 
5.511E+00   1.563E+01  3.124E-01 
5.575E+00   1.571E+01  3.114E-01 
5.640E+00   1.579E+01  3.105E-01 
5.705E+00   1.587E+01  3.095E-01 
5.771E+00   1.595E+01  3.085E-01 
5.838E+00   1.604E+01  3.076E-01 
5.906E+00   1.612E+01  3.066E-01 
5.975E+00   1.620E+01  3.056E-01 
6.044E+00   1.629E+01  3.046E-01 
6.114E+00   1.637E+01  3.036E-01 
6.185E+00   1.645E+01  3.026E-01 
6.257E+00   1.654E+01  3.016E-01 
6.329E+00   1.663E+01  3.006E-01 
6.403E+00   1.671E+01  2.996E-01 
6.477E+00   1.680E+01  2.986E-01 
6.552E+00   1.688E+01  2.975E-01 
6.628E+00   1.697E+01  2.965E-01 
6.705E+00   1.706E+01  2.955E-01 
6.783E+00   1.715E+01  2.944E-01 
6.861E+00   1.723E+01  2.934E-01 
6.941E+00   1.732E+01  2.924E-01 
7.021E+00   1.741E+01  2.913E-01 
7.103E+00   1.750E+01  2.903E-01 
7.185E+00   1.759E+01  2.892E-01 
7.269E+00   1.768E+01  2.882E-01 
7.353E+00   1.777E+01  2.871E-01 
7.438E+00   1.787E+01  2.860E-01 
7.524E+00   1.796E+01  2.850E-01 
7.612E+00   1.805E+01  2.839E-01 
7.700E+00   1.814E+01  2.828E-01 
7.789E+00   1.824E+01  2.817E-01 
7.880E+00   1.833E+01  2.807E-01 
7.971E+00   1.842E+01  2.796E-01 
8.064E+00   1.852E+01  2.785E-01 
8.157E+00   1.861E+01  2.774E-01 
8.252E+00   1.871E+01  2.763E-01 
8.347E+00   1.880E+01  2.752E-01 
8.444E+00   1.890E+01  2.741E-01 
8.542E+00   1.900E+01  2.730E-01 
8.641E+00   1.910E+01  2.719E-01 
8.741E+00   1.919E+01  2.708E-01 
8.843E+00   1.929E+01  2.697E-01 
8.945E+00   1.939E+01  2.686E-01 
9.049E+00   1.949E+01  2.675E-01 
9.154E+00   1.959E+01  2.664E-01 
9.260E+00   1.969E+01  2.653E-01 
9.368E+00   1.979E+01  2.642E-01 
9.476E+00   1.989E+01  2.630E-01 
9.586E+00   1.999E+01  2.619E-01 
9.698E+00   2.009E+01  2.608E-01 
9.810E+00   2.020E+01  2.597E-01 
9.924E+00   2.030E+01  2.585E-01 
1.004E+01   2.040E+01  2.574E-01 
1.016E+01   2.051E+01  2.563E-01 
1.027E+01   2.061E+01  2.552E-01 
1.039E+01   2.071E+01  2.540E-01 
1.051E+01   2.082E+01  2.529E-01 
1.063E+01   2.092E+01  2.518E-01 
1.076E+01   2.103E+01  2.506E-01 
1.088E+01   2.114E+01  2.495E-01 
1.101E+01   2.124E+01  2.484E-01 
1.114E+01   2.135E+01  2.472E-01 
1.127E+01   2.146E+01  2.461E-01 
1.140E+01   2.157E+01  2.450E-01 
1.153E+01   2.168E+01  2.438E-01 
1.166E+01   2.179E+01  2.427E-01 
1.180E+01   2.190E+01  2.415E-01 
1.193E+01   2.201E+01  2.404E-01 
1.207E+01   2.212E+01  2.393E-01 
1.221E+01   2.223E+01  2.381E-01 
1.235E+01   2.234E+01  2.370E-01 
1.250E+01   2.245E+01  2.358E-01 
1.264E+01   2.256E+01  2.347E-01 
1.279E+01   2.268E+01  2.336E-01 
1.294E+01   2.279E+01  2.324E-01 
1.309E+01   2.290E+01  2.313E-01 
1.324E+01   2.302E+01  2.301E-01 
1.339E+01   2.313E+01  2.290E-01 
1.355E+01   2.325E+01  2.279E-01 
1.371E+01   2.336E+01  2.267E-01 
1.387E+01   2.348E+01  2.256E-01 
1.403E+01   2.359E+01  2.244E-01 
1.419E+01   2.371E+01  2.233E-01 
1.435E+01   2.383E+01  2.222E-01 
1.452E+01   2.395E+01  2.210E-01 
1.469E+01   2.406E+01  2.199E-01 
1.486E+01   2.418E+01  2.188E-01 
1.503E+01   2.430E+01  2.176E-01 
1.521E+01   2.442E+01  2.165E-01 
1.538E+01   2.454E+01  2.154E-01 
1.556E+01   2.466E+01  2.142E-01 
1.574E+01   2.478E+01  2.131E-01 
1.592E+01   2.490E+01  2.120E-01 
1.611E+01   2.502E+01  2.109E-01 
1.629E+01   2.515E+01  2.097E-01 
1.648E+01   2.527E+01  2.086E-01 
1.667E+01   2.539E+01  2.075E-01 
1.687E+01   2.551E+01  2.064E-01 
1.706E+01   2.564E+01  2.052E-01 
1.726E+01   2.576E+01  2.041E-01 
1.746E+01   2.589E+01  2.030E-01 
1.766E+01   2.601E+01  2.019E-01 
1.787E+01   2.613E+01  2.008E-01 
1.808E+01   2.626E+01  1.997E-01 
1.829E+01   2.639E+01  1.986E-01 
1.850E+01   2.651E+01  1.975E-01 
1.871E+01   2.664E+01  1.964E-01 
1.893E+01   2.676E+01  1.952E-01 
1.915E+01   2.689E+01  1.941E-01 
1.937E+01   2.702E+01  1.931E-01 
1.960E+01   2.715E+01  1.920E-01 
1.982E+01   2.727E+01  1.909E-01 
2.005E+01   2.740E+01  1.898E-01 
2.029E+01   2.753E+01  1.887E-01 
2.052E+01   2.766E+01  1.876E-01 
2.076E+01   2.779E+01  1.865E-01 
2.100E+01   2.792E+01  1.854E-01 
2.124E+01   2.805E+01  1.843E-01 
2.149E+01   2.818E+01  1.833E-01 
2.174E+01   2.831E+01  1.822E-01 
2.199E+01   2.844E+01  1.811E-01 
2.225E+01   2.857E+01  1.801E-01 
2.250E+01   2.870E+01  1.790E-01 
2.277E+01   2.883E+01  1.779E-01 
2.303E+01   2.896E+01  1.769E-01 
2.330E+01   2.909E+01  1.758E-01 
2.357E+01   2.922E+01  1.747E-01 
2.384E+01   2.936E+01  1.737E-01 
2.412E+01   2.949E+01  1.726E-01 
2.440E+01   2.962E+01  1.716E-01 
2.468E+01   2.975E+01  1.706E-01 
2.497E+01   2.989E+01  1.695E-01 
2.526E+01   3.002E+01  1.685E-01 
2.555E+01   3.015E+01  1.674E-01 
2.584E+01   3.028E+01  1.664E-01 
2.614E+01   3.042E+01  1.654E-01 
2.645E+01   3.055E+01  1.644E-01 
2.675E+01   3.068E+01  1.633E-01 
2.707E+01   3.082E+01  1.623E-01 
2.738E+01   3.095E+01  1.613E-01 
2.770E+01   3.108E+01  1.603E-01 
2.802E+01   3.121E+01  1.593E-01 
2.834E+01   3.135E+01  1.583E-01 
2.867E+01   3.148E+01  1.573E-01 
2.900E+01   3.161E+01  1.563E-01 
2.934E+01   3.175E+01  1.553E-01 
2.968E+01   3.188E+01  1.543E-01 
3.003E+01   3.201E+01  1.533E-01 
3.037E+01   3.214E+01  1.523E-01 
3.073E+01   3.228E+01  1.514E-01 
3.108E+01   3.241E+01  1.504E-01 
3.144E+01   3.254E+01  1.494E-01 
3.181E+01   3.267E+01  1.484E-01 
3.218E+01   3.281E+01  1.475E-01 
3.255E+01   3.294E+01  1.465E-01 
3.293E+01   3.307E+01  1.456E-01 
3.331E+01   3.320E+01  1.446E-01 
3.370E+01   3.333E+01  1.436E-01 
3.409E+01   3.346E+01  1.427E-01 
3.448E+01   3.359E+01  1.418E-01 
3.488E+01   3.372E+01  1.408E-01 
3.529E+01   3.385E+01  1.399E-01 
3.570E+01   3.398E+01  1.390E-01 
3.611E+01   3.411E+01  1.380E-01 
3.653E+01   3.424E+01  1.371E-01 
3.695E+01   3.437E+01  1.362E-01 
3.738E+01   3.450E+01  1.353E-01 
3.781E+01   3.462E+01  1.344E-01 
3.825E+01   3.475E+01  1.334E-01 
3.870E+01   3.488E+01  1.325E-01 
3.915E+01   3.500E+01  1.316E-01 
3.960E+01   3.513E+01  1.307E-01 
4.006E+01   3.525E+01  1.299E-01 
4.052E+01   3.537E+01  1.290E-01 
4.099E+01   3.550E+01  1.281E-01 
4.147E+01   3.562E+01  1.272E-01 
4.195E+01   3.574E+01  1.263E-01 
4.244E+01   3.586E+01  1.255E-01 
4.293E+01   3.598E+01  1.246E-01 
4.343E+01   3.610E+01  1.237E-01 
4.393E+01   3.622E+01  1.229E-01 
4.444E+01   3.634E+01  1.220E-01 
4.496E+01   3.645E+01  1.212E-01 
4.548E+01   3.657E+01  1.203E-01 
4.600E+01   3.668E+01  1.195E-01 
4.654E+01   3.680E+01  1.186E-01 
4.708E+01   3.691E+01  1.178E-01 
4.762E+01   3.702E+01  1.170E-01 
4.818E+01   3.713E+01  1.161E-01 
4.873E+01   3.724E+01  1.153E-01 
4.930E+01   3.735E+01  1.145E-01 
4.987E+01   3.746E+01  1.137E-01 
5.045E+01   3.757E+01  1.129E-01 
5.104E+01   3.767E+01  1.121E-01 
5.163E+01   3.777E+01  1.113E-01 
5.223E+01   3.788E+01  1.105E-01 
5.283E+01   3.798E+01  1.097E-01 
5.344E+01   3.808E+01  1.089E-01 
5.406E+01   3.818E+01  1.081E-01 
5.469E+01   3.827E+01  1.073E-01 
5.533E+01   3.837E+01  1.065E-01 
5.597E+01   3.846E+01  1.057E-01 
5.662E+01   3.856E+01  1.050E-01 
5.727E+01   3.865E+01  1.042E-01 
5.794E+01   3.874E+01  1.035E-01 
5.861E+01   3.882E+01  1.027E-01 
5.929E+01   3.891E+01  1.019E-01 
5.998E+01   3.899E+01  1.012E-01 
6.067E+01   3.908E+01  1.004E-01 
6.138E+01   3.916E+01  9.971E-02 
6.209E+01   3.923E+01  9.897E-02 
6.281E+01   3.931E+01  9.824E-02 
6.354E+01   3.939E+01  9.751E-02 
6.427E+01   3.946E+01  9.679E-02 
6.502E+01   3.953E+01  9.607E-02 
6.577E+01   3.960E+01  9.535E-02 
6.654E+01   3.967E+01  9.464E-02 
6.731E+01   3.973E+01  9.393E-02 
6.809E+01   3.980E+01  9.323E-02 
6.888E+01   3.986E+01  9.253E-02 
6.968E+01   3.991E+01  9.183E-02 
7.049E+01   3.997E+01  9.114E-02 
7.130E+01   4.003E+01  9.045E-02 
7.213E+01   4.008E+01  8.977E-02 
7.297E+01   4.013E+01  8.909E-02 
7.381E+01   4.017E+01  8.841E-02 
7.467E+01   4.022E+01  8.774E-02 
7.554E+01   4.026E+01  8.707E-02 
7.641E+01   4.030E+01  8.641E-02 
7.730E+01   4.034E+01  8.575E-02 
7.820E+01   4.037E+01  8.509E-02 
7.910E+01   4.041E+01  8.444E-02 
8.002E+01   4.044E+01  8.380E-02 
8.095E+01   4.046E+01  8.315E-02 
8.189E+01   4.049E+01  8.251E-02 
8.284E+01   4.051E+01  8.188E-02 
8.380E+01   4.053E+01  8.124E-02 
8.477E+01   4.055E+01  8.062E-02 
8.575E+01   4.056E+01  7.999E-02 
8.675E+01   4.057E+01  7.937E-02 
8.775E+01   4.058E+01  7.876E-02 
8.877E+01   4.059E+01  7.814E-02 
8.980E+01   4.059E+01  7.753E-02 
9.084E+01   4.059E+01  7.693E-02 
9.190E+01   4.059E+01  7.633E-02 
9.296E+01   4.058E+01  7.573E-02 
9.404E+01   4.057E+01  7.514E-02 
9.513E+01   4.056E+01  7.455E-02 
9.624E+01   4.055E+01  7.396E-02 
9.735E+01   4.053E+01  7.338E-02 
9.848E+01   4.051E+01  7.280E-02 
9.962E+01   4.049E+01  7.223E-02 
1.008E+02   4.046E+01  7.166E-02 
1.019E+02   4.043E+01  7.109E-02 
1.031E+02   4.040E+01  7.053E-02 
1.043E+02   4.036E+01  6.997E-02 
1.055E+02   4.033E+01  6.941E-02 
1.068E+02   4.028E+01  6.886E-02 
1.080E+02   4.024E+01  6.831E-02 
1.093E+02   4.019E+01  6.776E-02 
1.105E+02   4.014E+01  6.722E-02 
1.118E+02   4.009E+01  6.669E-02 
1.131E+02   4.003E+01  6.615E-02 
1.144E+02   3.997E+01  6.562E-02 
1.157E+02   3.991E+01  6.509E-02 
1.171E+02   3.984E+01  6.457E-02 
1.184E+02   3.978E+01  6.405E-02 
1.198E+02   3.970E+01  6.353E-02 
1.212E+02   3.963E+01  6.302E-02 
1.226E+02   3.955E+01  6.251E-02 
1.240E+02   3.947E+01  6.201E-02 
1.255E+02   3.939E+01  6.248E-02 
1.269E+02   3.930E+01  6.198E-02 
1.284E+02   3.921E+01  6.147E-02 
1.299E+02   3.912E+01  6.097E-02 
1.314E+02   3.903E+01  6.048E-02 
1.329E+02   3.893E+01  5.998E-02 
1.345E+02   3.883E+01  5.949E-02 
1.360E+02   3.872E+01  5.900E-02 
1.376E+02   3.862E+01  5.852E-02 
1.392E+02   3.851E+01  5.804E-02 
1.408E+02   3.840E+01  5.756E-02 
1.424E+02   3.828E+01  5.709E-02 
1.441E+02   3.817E+01  5.662E-02 
1.458E+02   3.805E+01  5.615E-02 
1.475E+02   3.793E+01  5.569E-02 
1.492E+02   3.780E+01  5.523E-02 
1.509E+02   3.768E+01  5.477E-02 
1.526E+02   3.755E+01  5.431E-02 
1.544E+02   3.741E+01  5.386E-02 
1.562E+02   3.728E+01  5.342E-02 
1.580E+02   3.714E+01  5.297E-02 
1.598E+02   3.701E+01  5.253E-02 
1.617E+02   3.686E+01  5.209E-02 
1.636E+02   3.672E+01  5.166E-02 
1.655E+02   3.658E+01  5.122E-02 
1.674E+02   3.643E+01  5.079E-02 
1.693E+02   3.628E+01  5.037E-02 
1.713E+02   3.613E+01  4.995E-02 
1.733E+02   3.598E+01  4.953E-02 
1.753E+02   3.582E+01  4.911E-02 
1.773E+02   3.566E+01  4.870E-02 
1.794E+02   3.551E+01  4.829E-02 
1.815E+02   3.535E+01  4.788E-02 
1.836E+02   3.518E+01  4.747E-02 
1.857E+02   3.502E+01  4.707E-02 
1.879E+02   3.486E+01  4.667E-02 
1.900E+02   3.469E+01  4.628E-02 
1.922E+02   3.452E+01  4.589E-02 
1.945E+02   3.435E+01  4.550E-02 
1.967E+02   3.418E+01  4.511E-02 
1.990E+02   3.401E+01  4.472E-02 
2.013E+02   3.384E+01  4.434E-02 
2.036E+02   3.367E+01  4.397E-02 
2.060E+02   3.349E+01  4.359E-02 
2.084E+02   3.332E+01  4.322E-02 
2.108E+02   3.314E+01  4.285E-02 
2.133E+02   3.296E+01  4.248E-02 
2.157E+02   3.279E+01  4.212E-02 
2.182E+02   3.261E+01  4.175E-02 
2.208E+02   3.243E+01  4.140E-02 
2.233E+02   3.225E+01  4.104E-02 
2.259E+02   3.207E+01  4.069E-02 
2.285E+02   3.189E+01  4.034E-02 
2.312E+02   3.171E+01  3.999E-02 
2.339E+02   3.152E+01  3.964E-02 
2.366E+02   3.134E+01  3.930E-02 
2.393E+02   3.116E+01  3.896E-02 
2.421E+02   3.098E+01  3.862E-02 
2.449E+02   3.080E+01  3.829E-02 
2.478E+02   3.061E+01  3.796E-02 
2.506E+02   3.043E+01  3.763E-02 
2.535E+02   3.025E+01  3.730E-02 
2.565E+02   3.007E+01  3.698E-02 
2.595E+02   2.988E+01  3.666E-02 
2.625E+02   2.970E+01  3.634E-02 
2.655E+02   2.952E+01  3.602E-02 
2.686E+02   2.934E+01  3.570E-02 
2.717E+02   2.916E+01  3.539E-02 
2.749E+02   2.898E+01  3.508E-02 
2.780E+02   2.880E+01  3.478E-02 
2.813E+02   2.862E+01  3.447E-02 
2.845E+02   2.844E+01  3.417E-02 
2.878E+02   2.826E+01  3.387E-02 
2.912E+02   2.808E+01  3.357E-02 
2.945E+02   2.790E+01  3.328E-02 
2.980E+02   2.773E+01  3.299E-02 
3.014E+02   2.755E+01  3.270E-02 
3.049E+02   2.737E+01  3.241E-02 
3.085E+02   2.720E+01  3.212E-02 
3.120E+02   2.703E+01  3.184E-02 
3.156E+02   2.685E+01  3.156E-02 
3.193E+02   2.668E+01  3.128E-02 
3.230E+02   2.651E+01  3.100E-02 
3.268E+02   2.634E+01  3.073E-02 
3.306E+02   2.617E+01  3.046E-02 
3.344E+02   2.600E+01  3.019E-02 
3.383E+02   2.584E+01  2.992E-02 
3.422E+02   2.567E+01  2.965E-02 
3.462E+02   2.550E+01  2.939E-02 
3.502E+02   2.534E+01  2.913E-02 
3.542E+02   2.518E+01  2.887E-02 
3.583E+02   2.502E+01  2.861E-02 
3.625E+02   2.486E+01  2.836E-02 
3.667E+02   2.470E+01  2.810E-02 
3.710E+02   2.454E+01  2.785E-02 
3.753E+02   2.438E+01  2.760E-02 
3.796E+02   2.423E+01  2.736E-02 
3.840E+02   2.407E+01  2.711E-02 
3.885E+02   2.392E+01  2.687E-02 
3.930E+02   2.377E+01  2.663E-02 
3.975E+02   2.362E+01  2.639E-02 
4.021E+02   2.347E+01  2.615E-02 
4.068E+02   2.332E+01  2.592E-02 
4.115E+02   2.317E+01  2.569E-02 
4.163E+02   2.303E+01  2.546E-02 
4.211E+02   2.288E+01  2.523E-02 
4.260E+02   2.274E+01  2.500E-02 
4.310E+02   2.260E+01  2.478E-02 
4.360E+02   2.245E+01  2.455E-02 
4.410E+02   2.232E+01  2.433E-02 
4.461E+02   2.218E+01  2.411E-02 
4.513E+02   2.204E+01  2.389E-02 
4.565E+02   2.191E+01  2.368E-02 
4.618E+02   2.177E+01  2.346E-02 
4.672E+02   2.164E+01  2.325E-02 
4.726E+02   2.151E+01  2.304E-02 
4.781E+02   2.138E+01  2.283E-02 
4.836E+02   2.125E+01  2.263E-02 
4.892E+02   2.112E+01  2.242E-02 
4.949E+02   2.099E+01  2.222E-02 
5.007E+02   2.087E+01  2.201E-02 
5.065E+02   2.074E+01  2.181E-02 
5.123E+02   2.062E+01  2.162E-02 
5.183E+02   2.050E+01  2.142E-02 
5.243E+02   2.037E+01  2.122E-02 
5.304E+02   2.026E+01  2.103E-02 
5.365E+02   2.014E+01  2.084E-02 
5.428E+02   2.002E+01  2.065E-02 
5.490E+02   1.990E+01  2.046E-02 
5.554E+02   1.979E+01  2.027E-02 
5.619E+02   1.967E+01  2.009E-02 
5.684E+02   1.956E+01  1.991E-02 
5.750E+02   1.945E+01  1.972E-02 
5.816E+02   1.934E+01  1.954E-02 
5.884E+02   1.923E+01  1.936E-02 
5.952E+02   1.912E+01  1.919E-02 
6.021E+02   1.901E+01  1.901E-02 
6.091E+02   1.890E+01  1.884E-02 
6.162E+02   1.880E+01  1.866E-02 
6.233E+02   1.869E+01  1.849E-02 
6.305E+02   1.859E+01  1.832E-02 
6.378E+02   1.849E+01  1.815E-02 
6.452E+02   1.838E+01  1.799E-02 
6.527E+02   1.828E+01  1.782E-02 
6.603E+02   1.818E+01  1.766E-02 
6.680E+02   1.808E+01  1.749E-02 
6.757E+02   1.799E+01  1.733E-02 
6.835E+02   1.789E+01  1.717E-02 
6.915E+02   1.779E+01  1.701E-02 
6.995E+02   1.770E+01  1.686E-02 
7.076E+02   1.760E+01  1.670E-02 
7.158E+02   1.751E+01  1.655E-02 
7.241E+02   1.741E+01  1.639E-02 
7.325E+02   1.732E+01  1.624E-02 
7.410E+02   1.723E+01  1.609E-02 
7.496E+02   1.714E+01  1.594E-02 
7.583E+02   1.705E+01  1.579E-02 
7.671E+02   1.696E+01  1.565E-02 
7.760E+02   1.687E+01  1.550E-02 
7.850E+02   1.678E+01  1.536E-02 
7.941E+02   1.669E+01  1.522E-02 
8.033E+02   1.661E+01  1.507E-02 
8.126E+02   1.652E+01  1.493E-02 
8.221E+02   1.643E+01  1.479E-02 
8.316E+02   1.635E+01  1.466E-02 
