Ion = Helium      . Mass = 4.0026
Tgt = Pr (Solid). Density = 6.773 g/cm3
Stopping Units =  eV/(1E15 atoms/cm2)
Energy(keV)  S(Elec)    S(Nuc)
1.000E+00   5.321E+00  2.124E+00 
1.013E+00   5.356E+00  2.129E+00 
1.026E+00   5.390E+00  2.135E+00 
1.039E+00   5.425E+00  2.140E+00 
1.053E+00   5.461E+00  2.146E+00 
1.067E+00   5.496E+00  2.151E+00 
1.081E+00   5.531E+00  2.156E+00 
1.095E+00   5.567E+00  2.162E+00 
1.109E+00   5.603E+00  2.167E+00 
1.123E+00   5.640E+00  2.172E+00 
1.138E+00   5.676E+00  2.177E+00 
1.153E+00   5.713E+00  2.183E+00 
1.168E+00   5.750E+00  2.188E+00 
1.183E+00   5.787E+00  2.193E+00 
1.198E+00   5.825E+00  2.198E+00 
1.214E+00   5.862E+00  2.203E+00 
1.229E+00   5.900E+00  2.208E+00 
1.245E+00   5.939E+00  2.213E+00 
1.262E+00   5.977E+00  2.218E+00 
1.278E+00   6.016E+00  2.223E+00 
1.295E+00   6.055E+00  2.228E+00 
1.311E+00   6.094E+00  2.233E+00 
1.329E+00   6.133E+00  2.238E+00 
1.346E+00   6.173E+00  2.243E+00 
1.363E+00   6.213E+00  2.248E+00 
1.381E+00   6.253E+00  2.253E+00 
1.399E+00   6.294E+00  2.257E+00 
1.417E+00   6.335E+00  2.262E+00 
1.436E+00   6.376E+00  2.267E+00 
1.454E+00   6.417E+00  2.271E+00 
1.473E+00   6.459E+00  2.276E+00 
1.492E+00   6.500E+00  2.281E+00 
1.512E+00   6.543E+00  2.285E+00 
1.531E+00   6.585E+00  2.290E+00 
1.551E+00   6.628E+00  2.294E+00 
1.571E+00   6.670E+00  2.298E+00 
1.592E+00   6.714E+00  2.303E+00 
1.612E+00   6.757E+00  2.307E+00 
1.633E+00   6.801E+00  2.312E+00 
1.655E+00   6.845E+00  2.316E+00 
1.676E+00   6.889E+00  2.320E+00 
1.698E+00   6.934E+00  2.324E+00 
1.720E+00   6.979E+00  2.329E+00 
1.742E+00   7.024E+00  2.333E+00 
1.765E+00   7.070E+00  2.337E+00 
1.788E+00   7.115E+00  2.341E+00 
1.811E+00   7.161E+00  2.345E+00 
1.835E+00   7.208E+00  2.349E+00 
1.859E+00   7.255E+00  2.353E+00 
1.883E+00   7.302E+00  2.357E+00 
1.907E+00   7.349E+00  2.360E+00 
1.932E+00   7.396E+00  2.364E+00 
1.957E+00   7.444E+00  2.368E+00 
1.983E+00   7.493E+00  2.372E+00 
2.008E+00   7.541E+00  2.375E+00 
2.034E+00   7.590E+00  2.379E+00 
2.061E+00   7.639E+00  2.382E+00 
2.088E+00   7.689E+00  2.386E+00 
2.115E+00   7.738E+00  2.390E+00 
2.142E+00   7.788E+00  2.393E+00 
2.170E+00   7.839E+00  2.396E+00 
2.198E+00   7.890E+00  2.400E+00 
2.227E+00   7.941E+00  2.403E+00 
2.256E+00   7.992E+00  2.406E+00 
2.285E+00   8.044E+00  2.409E+00 
2.315E+00   8.096E+00  2.413E+00 
2.345E+00   8.149E+00  2.416E+00 
2.375E+00   8.201E+00  2.419E+00 
2.406E+00   8.254E+00  2.422E+00 
2.438E+00   8.308E+00  2.425E+00 
2.469E+00   8.362E+00  2.428E+00 
2.501E+00   8.416E+00  2.430E+00 
2.534E+00   8.470E+00  2.433E+00 
2.567E+00   8.525E+00  2.436E+00 
2.600E+00   8.581E+00  2.439E+00 
2.634E+00   8.636E+00  2.441E+00 
2.668E+00   8.692E+00  2.444E+00 
2.703E+00   8.748E+00  2.446E+00 
2.738E+00   8.805E+00  2.449E+00 
2.773E+00   8.862E+00  2.451E+00 
2.810E+00   8.919E+00  2.454E+00 
2.846E+00   8.977E+00  2.456E+00 
2.883E+00   9.035E+00  2.458E+00 
2.921E+00   9.094E+00  2.460E+00 
2.958E+00   9.153E+00  2.463E+00 
2.997E+00   9.212E+00  2.465E+00 
3.036E+00   9.272E+00  2.467E+00 
3.075E+00   9.332E+00  2.469E+00 
3.115E+00   9.392E+00  2.471E+00 
3.156E+00   9.453E+00  2.473E+00 
3.197E+00   9.514E+00  2.474E+00 
3.238E+00   9.576E+00  2.476E+00 
3.280E+00   9.638E+00  2.478E+00 
3.323E+00   9.700E+00  2.479E+00 
3.366E+00   9.763E+00  2.481E+00 
3.410E+00   9.826E+00  2.482E+00 
3.454E+00   9.890E+00  2.484E+00 
3.499E+00   9.954E+00  2.485E+00 
3.545E+00   1.002E+01  2.487E+00 
3.591E+00   1.008E+01  2.488E+00 
3.637E+00   1.015E+01  2.489E+00 
3.685E+00   1.021E+01  2.490E+00 
3.733E+00   1.028E+01  2.491E+00 
3.781E+00   1.035E+01  2.492E+00 
3.830E+00   1.041E+01  2.493E+00 
3.880E+00   1.048E+01  2.494E+00 
3.930E+00   1.055E+01  2.495E+00 
3.982E+00   1.062E+01  2.496E+00 
4.033E+00   1.069E+01  2.496E+00 
4.086E+00   1.076E+01  2.497E+00 
4.139E+00   1.083E+01  2.498E+00 
4.193E+00   1.090E+01  2.498E+00 
4.247E+00   1.097E+01  2.499E+00 
4.302E+00   1.104E+01  2.499E+00 
4.358E+00   1.111E+01  2.499E+00 
4.415E+00   1.118E+01  2.500E+00 
4.472E+00   1.125E+01  2.500E+00 
4.530E+00   1.133E+01  2.500E+00 
4.589E+00   1.140E+01  2.500E+00 
4.649E+00   1.147E+01  2.500E+00 
4.709E+00   1.155E+01  2.500E+00 
4.770E+00   1.162E+01  2.500E+00 
4.832E+00   1.170E+01  2.499E+00 
4.895E+00   1.177E+01  2.499E+00 
4.959E+00   1.185E+01  2.499E+00 
5.023E+00   1.193E+01  2.498E+00 
5.089E+00   1.200E+01  2.498E+00 
5.155E+00   1.208E+01  2.497E+00 
5.222E+00   1.216E+01  2.497E+00 
5.290E+00   1.224E+01  2.496E+00 
5.358E+00   1.232E+01  2.495E+00 
5.428E+00   1.240E+01  2.494E+00 
5.499E+00   1.248E+01  2.493E+00 
5.570E+00   1.256E+01  2.492E+00 
5.642E+00   1.264E+01  2.491E+00 
5.716E+00   1.272E+01  2.490E+00 
5.790E+00   1.280E+01  2.489E+00 
5.865E+00   1.289E+01  2.488E+00 
5.942E+00   1.297E+01  2.486E+00 
6.019E+00   1.305E+01  2.485E+00 
6.097E+00   1.314E+01  2.483E+00 
6.176E+00   1.322E+01  2.482E+00 
6.256E+00   1.331E+01  2.480E+00 
6.338E+00   1.340E+01  2.478E+00 
6.420E+00   1.348E+01  2.477E+00 
6.504E+00   1.357E+01  2.475E+00 
6.588E+00   1.366E+01  2.473E+00 
6.674E+00   1.375E+01  2.471E+00 
6.760E+00   1.384E+01  2.469E+00 
6.848E+00   1.393E+01  2.467E+00 
6.937E+00   1.402E+01  2.465E+00 
7.027E+00   1.411E+01  2.462E+00 
7.119E+00   1.420E+01  2.460E+00 
7.211E+00   1.429E+01  2.458E+00 
7.305E+00   1.438E+01  2.455E+00 
7.400E+00   1.448E+01  2.453E+00 
7.496E+00   1.457E+01  2.450E+00 
7.594E+00   1.466E+01  2.447E+00 
7.692E+00   1.476E+01  2.444E+00 
7.792E+00   1.485E+01  2.442E+00 
7.894E+00   1.495E+01  2.439E+00 
7.996E+00   1.505E+01  2.436E+00 
8.100E+00   1.517E+01  2.433E+00 
8.205E+00   1.529E+01  2.429E+00 
8.312E+00   1.541E+01  2.426E+00 
8.420E+00   1.553E+01  2.423E+00 
8.529E+00   1.566E+01  2.420E+00 
8.640E+00   1.578E+01  2.416E+00 
8.753E+00   1.591E+01  2.413E+00 
8.866E+00   1.604E+01  2.409E+00 
8.982E+00   1.616E+01  2.406E+00 
9.098E+00   1.629E+01  2.402E+00 
9.217E+00   1.643E+01  2.398E+00 
9.336E+00   1.656E+01  2.394E+00 
9.458E+00   1.669E+01  2.390E+00 
9.581E+00   1.682E+01  2.386E+00 
9.705E+00   1.696E+01  2.382E+00 
9.831E+00   1.710E+01  2.378E+00 
9.959E+00   1.723E+01  2.374E+00 
1.009E+01   1.737E+01  2.370E+00 
1.022E+01   1.751E+01  2.365E+00 
1.035E+01   1.765E+01  2.361E+00 
1.049E+01   1.779E+01  2.357E+00 
1.062E+01   1.794E+01  2.352E+00 
1.076E+01   1.808E+01  2.347E+00 
1.090E+01   1.823E+01  2.343E+00 
1.104E+01   1.838E+01  2.338E+00 
1.119E+01   1.852E+01  2.333E+00 
1.133E+01   1.867E+01  2.328E+00 
1.148E+01   1.882E+01  2.323E+00 
1.163E+01   1.898E+01  2.318E+00 
1.178E+01   1.913E+01  2.313E+00 
1.193E+01   1.928E+01  2.308E+00 
1.209E+01   1.944E+01  2.303E+00 
1.224E+01   1.960E+01  2.298E+00 
1.240E+01   1.976E+01  2.293E+00 
1.256E+01   1.992E+01  2.287E+00 
1.273E+01   2.008E+01  2.282E+00 
1.289E+01   2.024E+01  2.276E+00 
1.306E+01   2.040E+01  2.271E+00 
1.323E+01   2.057E+01  2.265E+00 
1.340E+01   2.074E+01  2.259E+00 
1.358E+01   2.090E+01  2.254E+00 
1.375E+01   2.107E+01  2.248E+00 
1.393E+01   2.124E+01  2.242E+00 
1.411E+01   2.142E+01  2.236E+00 
1.430E+01   2.159E+01  2.230E+00 
1.448E+01   2.177E+01  2.224E+00 
1.467E+01   2.194E+01  2.218E+00 
1.486E+01   2.212E+01  2.212E+00 
1.505E+01   2.230E+01  2.205E+00 
1.525E+01   2.248E+01  2.199E+00 
1.545E+01   2.267E+01  2.193E+00 
1.565E+01   2.285E+01  2.187E+00 
1.585E+01   2.304E+01  2.180E+00 
1.606E+01   2.322E+01  2.174E+00 
1.627E+01   2.341E+01  2.167E+00 
1.648E+01   2.360E+01  2.160E+00 
1.669E+01   2.380E+01  2.154E+00 
1.691E+01   2.399E+01  2.147E+00 
1.713E+01   2.419E+01  2.140E+00 
1.735E+01   2.438E+01  2.134E+00 
1.758E+01   2.458E+01  2.127E+00 
1.781E+01   2.478E+01  2.120E+00 
1.804E+01   2.498E+01  2.113E+00 
1.827E+01   2.519E+01  2.106E+00 
1.851E+01   2.539E+01  2.099E+00 
1.875E+01   2.560E+01  2.092E+00 
1.899E+01   2.581E+01  2.085E+00 
1.924E+01   2.602E+01  2.077E+00 
1.949E+01   2.623E+01  2.070E+00 
1.974E+01   2.645E+01  2.063E+00 
2.000E+01   2.667E+01  2.056E+00 
2.026E+01   2.688E+01  2.048E+00 
2.052E+01   2.710E+01  2.041E+00 
2.079E+01   2.733E+01  2.033E+00 
2.106E+01   2.755E+01  2.026E+00 
2.133E+01   2.777E+01  2.018E+00 
2.161E+01   2.800E+01  2.011E+00 
2.189E+01   2.823E+01  2.003E+00 
2.218E+01   2.846E+01  1.996E+00 
2.247E+01   2.870E+01  1.988E+00 
2.276E+01   2.893E+01  1.980E+00 
2.305E+01   2.917E+01  1.973E+00 
2.335E+01   2.941E+01  1.965E+00 
2.366E+01   2.965E+01  1.957E+00 
2.396E+01   2.989E+01  1.949E+00 
2.428E+01   3.014E+01  1.941E+00 
2.459E+01   3.038E+01  1.933E+00 
2.491E+01   3.063E+01  1.926E+00 
2.523E+01   3.089E+01  1.918E+00 
2.556E+01   3.114E+01  1.910E+00 
2.589E+01   3.139E+01  1.902E+00 
2.623E+01   3.165E+01  1.893E+00 
2.657E+01   3.191E+01  1.885E+00 
2.692E+01   3.217E+01  1.877E+00 
2.727E+01   3.244E+01  1.869E+00 
2.762E+01   3.270E+01  1.861E+00 
2.798E+01   3.297E+01  1.853E+00 
2.834E+01   3.324E+01  1.845E+00 
2.871E+01   3.352E+01  1.836E+00 
2.909E+01   3.379E+01  1.828E+00 
2.946E+01   3.407E+01  1.820E+00 
2.985E+01   3.435E+01  1.812E+00 
3.023E+01   3.463E+01  1.803E+00 
3.063E+01   3.492E+01  1.795E+00 
3.103E+01   3.520E+01  1.787E+00 
3.143E+01   3.549E+01  1.778E+00 
3.184E+01   3.578E+01  1.770E+00 
3.225E+01   3.608E+01  1.761E+00 
3.267E+01   3.637E+01  1.753E+00 
3.309E+01   3.667E+01  1.745E+00 
3.352E+01   3.698E+01  1.736E+00 
3.396E+01   3.728E+01  1.728E+00 
3.440E+01   3.759E+01  1.719E+00 
3.485E+01   3.789E+01  1.711E+00 
3.530E+01   3.821E+01  1.702E+00 
3.576E+01   3.852E+01  1.694E+00 
3.623E+01   3.884E+01  1.685E+00 
3.670E+01   3.915E+01  1.677E+00 
3.717E+01   3.948E+01  1.668E+00 
3.766E+01   3.980E+01  1.660E+00 
3.815E+01   4.013E+01  1.651E+00 
3.864E+01   4.046E+01  1.643E+00 
3.914E+01   4.079E+01  1.634E+00 
3.965E+01   4.112E+01  1.625E+00 
4.017E+01   4.146E+01  1.617E+00 
4.069E+01   4.180E+01  1.608E+00 
4.122E+01   4.214E+01  1.600E+00 
4.175E+01   4.249E+01  1.591E+00 
4.230E+01   4.284E+01  1.583E+00 
4.285E+01   4.319E+01  1.574E+00 
4.340E+01   4.354E+01  1.565E+00 
4.397E+01   4.390E+01  1.557E+00 
4.454E+01   4.426E+01  1.548E+00 
4.512E+01   4.462E+01  1.540E+00 
4.570E+01   4.498E+01  1.531E+00 
4.630E+01   4.535E+01  1.523E+00 
4.690E+01   4.572E+01  1.514E+00 
4.751E+01   4.610E+01  1.505E+00 
4.813E+01   4.647E+01  1.497E+00 
4.875E+01   4.685E+01  1.488E+00 
4.939E+01   4.723E+01  1.480E+00 
5.003E+01   4.762E+01  1.471E+00 
5.068E+01   4.801E+01  1.463E+00 
5.134E+01   4.840E+01  1.454E+00 
5.200E+01   4.879E+01  1.446E+00 
5.268E+01   4.919E+01  1.437E+00 
5.336E+01   4.959E+01  1.429E+00 
5.406E+01   4.999E+01  1.420E+00 
5.476E+01   5.040E+01  1.412E+00 
5.547E+01   5.081E+01  1.403E+00 
5.619E+01   5.122E+01  1.395E+00 
5.692E+01   5.164E+01  1.386E+00 
5.766E+01   5.205E+01  1.378E+00 
5.841E+01   5.247E+01  1.370E+00 
5.917E+01   5.290E+01  1.361E+00 
5.994E+01   5.333E+01  1.353E+00 
6.072E+01   5.376E+01  1.344E+00 
6.151E+01   5.419E+01  1.336E+00 
6.231E+01   5.463E+01  1.328E+00 
6.312E+01   5.507E+01  1.319E+00 
6.394E+01   5.551E+01  1.311E+00 
6.477E+01   5.596E+01  1.303E+00 
6.561E+01   5.641E+01  1.295E+00 
6.646E+01   5.686E+01  1.286E+00 
6.733E+01   5.732E+01  1.278E+00 
6.820E+01   5.777E+01  1.270E+00 
6.909E+01   5.824E+01  1.262E+00 
6.999E+01   5.870E+01  1.253E+00 
7.090E+01   5.917E+01  1.245E+00 
7.182E+01   5.964E+01  1.237E+00 
7.275E+01   6.012E+01  1.229E+00 
7.370E+01   6.059E+01  1.221E+00 
7.465E+01   6.107E+01  1.213E+00 
7.562E+01   6.156E+01  1.205E+00 
7.661E+01   6.205E+01  1.197E+00 
7.760E+01   6.254E+01  1.189E+00 
7.861E+01   6.303E+01  1.181E+00 
7.963E+01   6.353E+01  1.173E+00 
8.067E+01   6.403E+01  1.165E+00 
8.172E+01   6.453E+01  1.157E+00 
8.278E+01   6.503E+01  1.149E+00 
8.385E+01   6.554E+01  1.141E+00 
8.494E+01   6.606E+01  1.134E+00 
8.605E+01   6.657E+01  1.126E+00 
8.717E+01   6.709E+01  1.118E+00 
8.830E+01   6.761E+01  1.110E+00 
8.945E+01   6.813E+01  1.103E+00 
9.061E+01   6.866E+01  1.095E+00 
9.179E+01   6.919E+01  1.087E+00 
9.298E+01   6.972E+01  1.080E+00 
9.419E+01   7.026E+01  1.072E+00 
9.541E+01   7.080E+01  1.065E+00 
9.665E+01   7.134E+01  1.057E+00 
9.791E+01   7.188E+01  1.049E+00 
9.918E+01   7.243E+01  1.042E+00 
1.005E+02   7.298E+01  1.035E+00 
1.018E+02   7.353E+01  1.027E+00 
1.031E+02   7.409E+01  1.020E+00 
1.044E+02   7.465E+01  1.012E+00 
1.058E+02   7.521E+01  1.005E+00 
1.072E+02   7.577E+01  9.977E-01 
1.086E+02   7.634E+01  9.904E-01 
1.100E+02   7.691E+01  9.832E-01 
1.114E+02   7.748E+01  9.760E-01 
1.129E+02   7.805E+01  9.688E-01 
1.143E+02   7.863E+01  9.617E-01 
1.158E+02   7.920E+01  9.545E-01 
1.173E+02   7.978E+01  9.475E-01 
1.188E+02   8.037E+01  9.404E-01 
1.204E+02   8.095E+01  9.334E-01 
1.219E+02   8.154E+01  9.264E-01 
1.235E+02   8.213E+01  9.195E-01 
1.251E+02   8.272E+01  9.125E-01 
1.268E+02   8.331E+01  9.057E-01 
1.284E+02   8.390E+01  8.988E-01 
1.301E+02   8.450E+01  8.920E-01 
1.318E+02   8.510E+01  8.852E-01 
1.335E+02   8.570E+01  8.785E-01 
1.352E+02   8.630E+01  8.717E-01 
1.370E+02   8.690E+01  8.651E-01 
1.388E+02   8.750E+01  8.584E-01 
1.406E+02   8.811E+01  8.518E-01 
1.424E+02   8.872E+01  8.452E-01 
1.442E+02   8.932E+01  8.387E-01 
1.461E+02   8.993E+01  8.321E-01 
1.480E+02   9.054E+01  8.257E-01 
1.499E+02   9.115E+01  8.192E-01 
1.519E+02   9.176E+01  8.128E-01 
1.539E+02   9.238E+01  8.064E-01 
1.559E+02   9.299E+01  8.001E-01 
1.579E+02   9.360E+01  7.938E-01 
1.599E+02   9.421E+01  7.875E-01 
1.620E+02   9.483E+01  7.813E-01 
1.641E+02   9.544E+01  7.751E-01 
1.662E+02   9.606E+01  7.689E-01 
1.684E+02   9.667E+01  7.628E-01 
1.706E+02   9.728E+01  7.567E-01 
1.728E+02   9.790E+01  7.506E-01 
1.751E+02   9.851E+01  7.446E-01 
1.773E+02   9.912E+01  7.386E-01 
1.796E+02   9.973E+01  7.326E-01 
1.820E+02   1.003E+02  7.267E-01 
1.843E+02   1.010E+02  7.208E-01 
1.867E+02   1.016E+02  7.150E-01 
1.892E+02   1.022E+02  7.091E-01 
1.916E+02   1.028E+02  7.034E-01 
1.941E+02   1.034E+02  6.976E-01 
1.966E+02   1.040E+02  6.919E-01 
1.992E+02   1.046E+02  6.862E-01 
2.018E+02   1.052E+02  6.806E-01 
2.044E+02   1.058E+02  6.750E-01 
2.071E+02   1.064E+02  6.694E-01 
2.097E+02   1.070E+02  6.638E-01 
2.125E+02   1.076E+02  6.583E-01 
2.152E+02   1.082E+02  6.529E-01 
2.180E+02   1.088E+02  6.474E-01 
2.209E+02   1.093E+02  6.420E-01 
2.237E+02   1.099E+02  6.366E-01 
2.266E+02   1.105E+02  6.313E-01 
2.296E+02   1.111E+02  6.260E-01 
2.326E+02   1.116E+02  6.207E-01 
2.356E+02   1.122E+02  6.155E-01 
2.387E+02   1.128E+02  6.103E-01 
2.418E+02   1.133E+02  6.052E-01 
2.449E+02   1.139E+02  6.000E-01 
2.481E+02   1.145E+02  5.949E-01 
2.513E+02   1.150E+02  5.899E-01 
2.546E+02   1.156E+02  5.848E-01 
2.579E+02   1.161E+02  5.798E-01 
2.612E+02   1.166E+02  5.749E-01 
2.646E+02   1.172E+02  5.700E-01 
2.681E+02   1.177E+02  5.651E-01 
2.716E+02   1.182E+02  5.602E-01 
2.751E+02   1.187E+02  5.554E-01 
2.787E+02   1.193E+02  5.506E-01 
2.823E+02   1.198E+02  5.458E-01 
2.859E+02   1.203E+02  5.411E-01 
2.897E+02   1.208E+02  5.364E-01 
2.934E+02   1.213E+02  5.317E-01 
2.972E+02   1.217E+02  5.271E-01 
3.011E+02   1.222E+02  5.225E-01 
3.050E+02   1.227E+02  5.180E-01 
3.090E+02   1.232E+02  5.134E-01 
3.130E+02   1.236E+02  5.089E-01 
3.171E+02   1.241E+02  5.045E-01 
3.212E+02   1.245E+02  5.000E-01 
3.254E+02   1.250E+02  4.956E-01 
3.296E+02   1.254E+02  4.913E-01 
3.339E+02   1.259E+02  4.869E-01 
3.382E+02   1.263E+02  4.826E-01 
3.426E+02   1.267E+02  4.783E-01 
3.471E+02   1.271E+02  4.741E-01 
3.516E+02   1.275E+02  4.699E-01 
3.561E+02   1.279E+02  4.657E-01 
3.608E+02   1.283E+02  4.615E-01 
3.655E+02   1.287E+02  4.574E-01 
3.702E+02   1.291E+02  4.533E-01 
3.750E+02   1.294E+02  4.493E-01 
3.799E+02   1.298E+02  4.452E-01 
3.848E+02   1.302E+02  4.412E-01 
3.898E+02   1.305E+02  4.373E-01 
3.949E+02   1.309E+02  4.333E-01 
4.000E+02   1.312E+02  4.294E-01 
4.052E+02   1.315E+02  4.255E-01 
4.105E+02   1.318E+02  4.217E-01 
4.158E+02   1.321E+02  4.179E-01 
4.212E+02   1.324E+02  4.166E-01 
4.267E+02   1.327E+02  4.128E-01 
4.323E+02   1.330E+02  4.090E-01 
4.379E+02   1.333E+02  4.053E-01 
4.436E+02   1.336E+02  4.016E-01 
4.493E+02   1.338E+02  3.979E-01 
4.552E+02   1.341E+02  3.943E-01 
4.611E+02   1.343E+02  3.906E-01 
4.671E+02   1.346E+02  3.871E-01 
4.731E+02   1.348E+02  3.835E-01 
4.793E+02   1.350E+02  3.800E-01 
4.855E+02   1.352E+02  3.765E-01 
4.918E+02   1.354E+02  3.730E-01 
4.982E+02   1.356E+02  3.695E-01 
5.047E+02   1.358E+02  3.661E-01 
5.113E+02   1.360E+02  3.627E-01 
5.179E+02   1.362E+02  3.593E-01 
5.246E+02   1.363E+02  3.560E-01 
5.315E+02   1.365E+02  3.527E-01 
5.384E+02   1.366E+02  3.494E-01 
5.454E+02   1.368E+02  3.461E-01 
5.524E+02   1.369E+02  3.429E-01 
5.596E+02   1.370E+02  3.397E-01 
5.669E+02   1.372E+02  3.365E-01 
5.743E+02   1.373E+02  3.333E-01 
5.817E+02   1.374E+02  3.302E-01 
5.893E+02   1.374E+02  3.271E-01 
5.969E+02   1.375E+02  3.240E-01 
6.047E+02   1.376E+02  3.209E-01 
6.126E+02   1.376E+02  3.179E-01 
6.205E+02   1.377E+02  3.149E-01 
6.286E+02   1.377E+02  3.119E-01 
6.368E+02   1.378E+02  3.089E-01 
6.450E+02   1.378E+02  3.060E-01 
6.534E+02   1.378E+02  3.031E-01 
6.619E+02   1.378E+02  3.002E-01 
6.705E+02   1.378E+02  2.974E-01 
6.792E+02   1.378E+02  2.945E-01 
6.881E+02   1.378E+02  2.917E-01 
6.970E+02   1.378E+02  2.889E-01 
7.061E+02   1.378E+02  2.862E-01 
7.152E+02   1.377E+02  2.834E-01 
7.245E+02   1.377E+02  2.807E-01 
7.339E+02   1.376E+02  2.780E-01 
7.435E+02   1.375E+02  2.753E-01 
7.531E+02   1.375E+02  2.727E-01 
7.629E+02   1.374E+02  2.700E-01 
7.728E+02   1.373E+02  2.674E-01 
7.829E+02   1.372E+02  2.649E-01 
7.931E+02   1.371E+02  2.623E-01 
8.034E+02   1.370E+02  2.598E-01 
8.138E+02   1.368E+02  2.572E-01 
8.244E+02   1.367E+02  2.547E-01 
8.351E+02   1.366E+02  2.523E-01 
8.460E+02   1.364E+02  2.498E-01 
8.570E+02   1.363E+02  2.474E-01 
8.681E+02   1.361E+02  2.450E-01 
8.794E+02   1.359E+02  2.426E-01 
8.908E+02   1.357E+02  2.402E-01 
9.024E+02   1.355E+02  2.379E-01 
9.141E+02   1.353E+02  2.356E-01 
9.260E+02   1.351E+02  2.333E-01 
9.380E+02   1.349E+02  2.310E-01 
9.502E+02   1.347E+02  2.287E-01 
9.626E+02   1.345E+02  2.265E-01 
9.751E+02   1.342E+02  2.242E-01 
9.877E+02   1.340E+02  2.220E-01 
1.001E+03   1.337E+02  2.198E-01 
1.014E+03   1.335E+02  2.177E-01 
1.027E+03   1.332E+02  2.155E-01 
1.040E+03   1.330E+02  2.134E-01 
1.054E+03   1.327E+02  2.113E-01 
1.067E+03   1.324E+02  2.092E-01 
1.081E+03   1.321E+02  2.071E-01 
1.095E+03   1.318E+02  2.051E-01 
1.109E+03   1.315E+02  2.031E-01 
1.124E+03   1.312E+02  2.010E-01 
1.138E+03   1.308E+02  1.990E-01 
1.153E+03   1.305E+02  1.971E-01 
1.168E+03   1.302E+02  1.951E-01 
1.183E+03   1.298E+02  1.932E-01 
1.199E+03   1.295E+02  1.912E-01 
1.214E+03   1.291E+02  1.893E-01 
1.230E+03   1.288E+02  1.875E-01 
1.246E+03   1.284E+02  1.856E-01 
1.262E+03   1.280E+02  1.837E-01 
1.279E+03   1.277E+02  1.819E-01 
1.295E+03   1.273E+02  1.801E-01 
1.312E+03   1.269E+02  1.783E-01 
1.329E+03   1.265E+02  1.765E-01 
1.347E+03   1.261E+02  1.747E-01 
1.364E+03   1.257E+02  1.729E-01 
1.382E+03   1.253E+02  1.712E-01 
1.400E+03   1.248E+02  1.695E-01 
1.418E+03   1.244E+02  1.678E-01 
1.436E+03   1.240E+02  1.661E-01 
1.455E+03   1.236E+02  1.644E-01 
1.474E+03   1.231E+02  1.628E-01 
1.493E+03   1.227E+02  1.611E-01 
1.513E+03   1.222E+02  1.595E-01 
1.532E+03   1.218E+02  1.579E-01 
1.552E+03   1.213E+02  1.563E-01 
1.572E+03   1.209E+02  1.547E-01 
1.593E+03   1.204E+02  1.531E-01 
1.613E+03   1.199E+02  1.516E-01 
1.634E+03   1.194E+02  1.500E-01 
1.656E+03   1.190E+02  1.485E-01 
1.677E+03   1.185E+02  1.470E-01 
1.699E+03   1.180E+02  1.455E-01 
1.721E+03   1.175E+02  1.440E-01 
1.743E+03   1.170E+02  1.426E-01 
1.766E+03   1.165E+02  1.411E-01 
1.789E+03   1.160E+02  1.397E-01 
1.812E+03   1.155E+02  1.382E-01 
1.836E+03   1.150E+02  1.368E-01 
1.860E+03   1.145E+02  1.354E-01 
