Ion = Helium      . Mass = 4.0026
Tgt = Nd (Solid). Density = 7.008 g/cm3
Stopping Units =  eV/(1E15 atoms/cm2)
Energy(keV)  S(Elec)    S(Nuc)
1.000E+00   5.997E+00  2.158E+00 
1.013E+00   6.036E+00  2.164E+00 
1.026E+00   6.075E+00  2.169E+00 
1.039E+00   6.114E+00  2.175E+00 
1.053E+00   6.154E+00  2.180E+00 
1.067E+00   6.193E+00  2.186E+00 
1.081E+00   6.234E+00  2.192E+00 
1.095E+00   6.274E+00  2.197E+00 
1.109E+00   6.315E+00  2.203E+00 
1.123E+00   6.355E+00  2.208E+00 
1.138E+00   6.397E+00  2.213E+00 
1.153E+00   6.438E+00  2.219E+00 
1.168E+00   6.480E+00  2.224E+00 
1.183E+00   6.522E+00  2.230E+00 
1.198E+00   6.564E+00  2.235E+00 
1.214E+00   6.607E+00  2.240E+00 
1.229E+00   6.649E+00  2.246E+00 
1.245E+00   6.692E+00  2.251E+00 
1.262E+00   6.736E+00  2.256E+00 
1.278E+00   6.779E+00  2.261E+00 
1.295E+00   6.823E+00  2.266E+00 
1.311E+00   6.867E+00  2.271E+00 
1.329E+00   6.912E+00  2.276E+00 
1.346E+00   6.957E+00  2.282E+00 
1.363E+00   7.002E+00  2.287E+00 
1.381E+00   7.047E+00  2.292E+00 
1.399E+00   7.093E+00  2.296E+00 
1.417E+00   7.139E+00  2.301E+00 
1.436E+00   7.185E+00  2.306E+00 
1.454E+00   7.231E+00  2.311E+00 
1.473E+00   7.278E+00  2.316E+00 
1.492E+00   7.325E+00  2.321E+00 
1.512E+00   7.373E+00  2.325E+00 
1.531E+00   7.421E+00  2.330E+00 
1.551E+00   7.469E+00  2.335E+00 
1.571E+00   7.517E+00  2.339E+00 
1.592E+00   7.566E+00  2.344E+00 
1.612E+00   7.615E+00  2.348E+00 
1.633E+00   7.664E+00  2.353E+00 
1.655E+00   7.714E+00  2.357E+00 
1.676E+00   7.764E+00  2.362E+00 
1.698E+00   7.814E+00  2.366E+00 
1.720E+00   7.865E+00  2.370E+00 
1.742E+00   7.916E+00  2.375E+00 
1.765E+00   7.967E+00  2.379E+00 
1.788E+00   8.018E+00  2.383E+00 
1.811E+00   8.070E+00  2.387E+00 
1.835E+00   8.123E+00  2.391E+00 
1.859E+00   8.175E+00  2.396E+00 
1.883E+00   8.228E+00  2.400E+00 
1.907E+00   8.282E+00  2.404E+00 
1.932E+00   8.335E+00  2.408E+00 
1.957E+00   8.389E+00  2.411E+00 
1.983E+00   8.444E+00  2.415E+00 
2.008E+00   8.498E+00  2.419E+00 
2.034E+00   8.553E+00  2.423E+00 
2.061E+00   8.609E+00  2.427E+00 
2.088E+00   8.664E+00  2.430E+00 
2.115E+00   8.721E+00  2.434E+00 
2.142E+00   8.777E+00  2.437E+00 
2.170E+00   8.834E+00  2.441E+00 
2.198E+00   8.891E+00  2.444E+00 
2.227E+00   8.949E+00  2.448E+00 
2.256E+00   9.007E+00  2.451E+00 
2.285E+00   9.065E+00  2.455E+00 
2.315E+00   9.124E+00  2.458E+00 
2.345E+00   9.183E+00  2.461E+00 
2.375E+00   9.242E+00  2.464E+00 
2.406E+00   9.302E+00  2.467E+00 
2.438E+00   9.362E+00  2.470E+00 
2.469E+00   9.423E+00  2.473E+00 
2.501E+00   9.484E+00  2.476E+00 
2.534E+00   9.546E+00  2.479E+00 
2.567E+00   9.607E+00  2.482E+00 
2.600E+00   9.670E+00  2.485E+00 
2.634E+00   9.732E+00  2.488E+00 
2.668E+00   9.795E+00  2.490E+00 
2.703E+00   9.859E+00  2.493E+00 
2.738E+00   9.923E+00  2.496E+00 
2.773E+00   9.987E+00  2.498E+00 
2.810E+00   1.005E+01  2.501E+00 
2.846E+00   1.012E+01  2.503E+00 
2.883E+00   1.018E+01  2.505E+00 
2.921E+00   1.025E+01  2.508E+00 
2.958E+00   1.031E+01  2.510E+00 
2.997E+00   1.038E+01  2.512E+00 
3.036E+00   1.045E+01  2.514E+00 
3.075E+00   1.052E+01  2.516E+00 
3.115E+00   1.058E+01  2.518E+00 
3.156E+00   1.065E+01  2.520E+00 
3.197E+00   1.072E+01  2.522E+00 
3.238E+00   1.079E+01  2.524E+00 
3.280E+00   1.086E+01  2.526E+00 
3.323E+00   1.093E+01  2.527E+00 
3.366E+00   1.100E+01  2.529E+00 
3.410E+00   1.107E+01  2.531E+00 
3.454E+00   1.115E+01  2.532E+00 
3.499E+00   1.122E+01  2.534E+00 
3.545E+00   1.129E+01  2.535E+00 
3.591E+00   1.136E+01  2.536E+00 
3.637E+00   1.144E+01  2.538E+00 
3.685E+00   1.151E+01  2.539E+00 
3.733E+00   1.159E+01  2.540E+00 
3.781E+00   1.166E+01  2.541E+00 
3.830E+00   1.174E+01  2.542E+00 
3.880E+00   1.181E+01  2.543E+00 
3.930E+00   1.189E+01  2.544E+00 
3.982E+00   1.197E+01  2.545E+00 
4.033E+00   1.204E+01  2.545E+00 
4.086E+00   1.212E+01  2.546E+00 
4.139E+00   1.220E+01  2.547E+00 
4.193E+00   1.228E+01  2.547E+00 
4.247E+00   1.236E+01  2.548E+00 
4.302E+00   1.244E+01  2.548E+00 
4.358E+00   1.252E+01  2.548E+00 
4.415E+00   1.260E+01  2.549E+00 
4.472E+00   1.268E+01  2.549E+00 
4.530E+00   1.276E+01  2.549E+00 
4.589E+00   1.285E+01  2.549E+00 
4.649E+00   1.293E+01  2.549E+00 
4.709E+00   1.301E+01  2.549E+00 
4.770E+00   1.310E+01  2.549E+00 
4.832E+00   1.318E+01  2.548E+00 
4.895E+00   1.327E+01  2.548E+00 
4.959E+00   1.335E+01  2.548E+00 
5.023E+00   1.344E+01  2.547E+00 
5.089E+00   1.353E+01  2.547E+00 
5.155E+00   1.361E+01  2.546E+00 
5.222E+00   1.370E+01  2.546E+00 
5.290E+00   1.379E+01  2.545E+00 
5.358E+00   1.388E+01  2.544E+00 
5.428E+00   1.397E+01  2.543E+00 
5.499E+00   1.406E+01  2.542E+00 
5.570E+00   1.415E+01  2.541E+00 
5.642E+00   1.424E+01  2.540E+00 
5.716E+00   1.434E+01  2.539E+00 
5.790E+00   1.443E+01  2.538E+00 
5.865E+00   1.452E+01  2.537E+00 
5.942E+00   1.462E+01  2.535E+00 
6.019E+00   1.471E+01  2.534E+00 
6.097E+00   1.481E+01  2.532E+00 
6.176E+00   1.490E+01  2.531E+00 
6.256E+00   1.500E+01  2.529E+00 
6.338E+00   1.510E+01  2.527E+00 
6.420E+00   1.519E+01  2.525E+00 
6.504E+00   1.529E+01  2.524E+00 
6.588E+00   1.539E+01  2.522E+00 
6.674E+00   1.549E+01  2.520E+00 
6.760E+00   1.559E+01  2.517E+00 
6.848E+00   1.569E+01  2.515E+00 
6.937E+00   1.579E+01  2.513E+00 
7.027E+00   1.590E+01  2.511E+00 
7.119E+00   1.600E+01  2.508E+00 
7.211E+00   1.610E+01  2.506E+00 
7.305E+00   1.621E+01  2.503E+00 
7.400E+00   1.631E+01  2.501E+00 
7.496E+00   1.642E+01  2.498E+00 
7.594E+00   1.652E+01  2.495E+00 
7.692E+00   1.663E+01  2.492E+00 
7.792E+00   1.674E+01  2.489E+00 
7.894E+00   1.685E+01  2.486E+00 
7.996E+00   1.696E+01  2.483E+00 
8.100E+00   1.708E+01  2.480E+00 
8.205E+00   1.720E+01  2.477E+00 
8.312E+00   1.732E+01  2.474E+00 
8.420E+00   1.744E+01  2.470E+00 
8.529E+00   1.757E+01  2.467E+00 
8.640E+00   1.769E+01  2.463E+00 
8.753E+00   1.782E+01  2.460E+00 
8.866E+00   1.794E+01  2.456E+00 
8.982E+00   1.807E+01  2.452E+00 
9.098E+00   1.820E+01  2.449E+00 
9.217E+00   1.833E+01  2.445E+00 
9.336E+00   1.846E+01  2.441E+00 
9.458E+00   1.860E+01  2.437E+00 
9.581E+00   1.873E+01  2.433E+00 
9.705E+00   1.886E+01  2.429E+00 
9.831E+00   1.900E+01  2.424E+00 
9.959E+00   1.913E+01  2.420E+00 
1.009E+01   1.927E+01  2.416E+00 
1.022E+01   1.941E+01  2.411E+00 
1.035E+01   1.955E+01  2.407E+00 
1.049E+01   1.969E+01  2.402E+00 
1.062E+01   1.983E+01  2.398E+00 
1.076E+01   1.998E+01  2.393E+00 
1.090E+01   2.012E+01  2.388E+00 
1.104E+01   2.027E+01  2.383E+00 
1.119E+01   2.041E+01  2.378E+00 
1.133E+01   2.056E+01  2.373E+00 
1.148E+01   2.071E+01  2.368E+00 
1.163E+01   2.086E+01  2.363E+00 
1.178E+01   2.101E+01  2.358E+00 
1.193E+01   2.117E+01  2.353E+00 
1.209E+01   2.132E+01  2.347E+00 
1.224E+01   2.147E+01  2.342E+00 
1.240E+01   2.163E+01  2.336E+00 
1.256E+01   2.179E+01  2.331E+00 
1.273E+01   2.195E+01  2.325E+00 
1.289E+01   2.211E+01  2.320E+00 
1.306E+01   2.227E+01  2.314E+00 
1.323E+01   2.243E+01  2.308E+00 
1.340E+01   2.260E+01  2.302E+00 
1.358E+01   2.277E+01  2.297E+00 
1.375E+01   2.293E+01  2.291E+00 
1.393E+01   2.310E+01  2.285E+00 
1.411E+01   2.327E+01  2.278E+00 
1.430E+01   2.344E+01  2.272E+00 
1.448E+01   2.362E+01  2.266E+00 
1.467E+01   2.379E+01  2.260E+00 
1.486E+01   2.397E+01  2.254E+00 
1.505E+01   2.414E+01  2.247E+00 
1.525E+01   2.432E+01  2.241E+00 
1.545E+01   2.450E+01  2.234E+00 
1.565E+01   2.469E+01  2.228E+00 
1.585E+01   2.487E+01  2.221E+00 
1.606E+01   2.505E+01  2.214E+00 
1.627E+01   2.524E+01  2.208E+00 
1.648E+01   2.543E+01  2.201E+00 
1.669E+01   2.562E+01  2.194E+00 
1.691E+01   2.581E+01  2.187E+00 
1.713E+01   2.600E+01  2.180E+00 
1.735E+01   2.620E+01  2.173E+00 
1.758E+01   2.640E+01  2.166E+00 
1.781E+01   2.659E+01  2.159E+00 
1.804E+01   2.679E+01  2.152E+00 
1.827E+01   2.700E+01  2.145E+00 
1.851E+01   2.720E+01  2.138E+00 
1.875E+01   2.740E+01  2.131E+00 
1.899E+01   2.761E+01  2.123E+00 
1.924E+01   2.782E+01  2.116E+00 
1.949E+01   2.803E+01  2.109E+00 
1.974E+01   2.824E+01  2.101E+00 
2.000E+01   2.846E+01  2.094E+00 
2.026E+01   2.867E+01  2.086E+00 
2.052E+01   2.889E+01  2.079E+00 
2.079E+01   2.911E+01  2.071E+00 
2.106E+01   2.933E+01  2.063E+00 
2.133E+01   2.956E+01  2.056E+00 
2.161E+01   2.978E+01  2.048E+00 
2.189E+01   3.001E+01  2.040E+00 
2.218E+01   3.024E+01  2.032E+00 
2.247E+01   3.047E+01  2.024E+00 
2.276E+01   3.071E+01  2.016E+00 
2.305E+01   3.094E+01  2.009E+00 
2.335E+01   3.118E+01  2.001E+00 
2.366E+01   3.142E+01  1.993E+00 
2.396E+01   3.166E+01  1.985E+00 
2.428E+01   3.191E+01  1.977E+00 
2.459E+01   3.215E+01  1.968E+00 
2.491E+01   3.240E+01  1.960E+00 
2.523E+01   3.265E+01  1.952E+00 
2.556E+01   3.290E+01  1.944E+00 
2.589E+01   3.316E+01  1.936E+00 
2.623E+01   3.342E+01  1.928E+00 
2.657E+01   3.368E+01  1.919E+00 
2.692E+01   3.394E+01  1.911E+00 
2.727E+01   3.420E+01  1.903E+00 
2.762E+01   3.447E+01  1.894E+00 
2.798E+01   3.474E+01  1.886E+00 
2.834E+01   3.501E+01  1.878E+00 
2.871E+01   3.528E+01  1.869E+00 
2.909E+01   3.556E+01  1.861E+00 
2.946E+01   3.584E+01  1.852E+00 
2.985E+01   3.612E+01  1.844E+00 
3.023E+01   3.640E+01  1.835E+00 
3.063E+01   3.669E+01  1.827E+00 
3.103E+01   3.698E+01  1.818E+00 
3.143E+01   3.727E+01  1.810E+00 
3.184E+01   3.757E+01  1.801E+00 
3.225E+01   3.786E+01  1.793E+00 
3.267E+01   3.816E+01  1.784E+00 
3.309E+01   3.846E+01  1.775E+00 
3.352E+01   3.877E+01  1.767E+00 
3.396E+01   3.908E+01  1.758E+00 
3.440E+01   3.939E+01  1.749E+00 
3.485E+01   3.970E+01  1.741E+00 
3.530E+01   4.001E+01  1.732E+00 
3.576E+01   4.033E+01  1.723E+00 
3.623E+01   4.065E+01  1.715E+00 
3.670E+01   4.098E+01  1.706E+00 
3.717E+01   4.131E+01  1.697E+00 
3.766E+01   4.164E+01  1.688E+00 
3.815E+01   4.197E+01  1.680E+00 
3.864E+01   4.230E+01  1.671E+00 
3.914E+01   4.264E+01  1.662E+00 
3.965E+01   4.298E+01  1.653E+00 
4.017E+01   4.333E+01  1.645E+00 
4.069E+01   4.368E+01  1.636E+00 
4.122E+01   4.403E+01  1.627E+00 
4.175E+01   4.438E+01  1.618E+00 
4.230E+01   4.474E+01  1.610E+00 
4.285E+01   4.510E+01  1.601E+00 
4.340E+01   4.546E+01  1.592E+00 
4.397E+01   4.583E+01  1.583E+00 
4.454E+01   4.620E+01  1.575E+00 
4.512E+01   4.657E+01  1.566E+00 
4.570E+01   4.694E+01  1.557E+00 
4.630E+01   4.732E+01  1.548E+00 
4.690E+01   4.770E+01  1.540E+00 
4.751E+01   4.809E+01  1.531E+00 
4.813E+01   4.848E+01  1.522E+00 
4.875E+01   4.887E+01  1.513E+00 
4.939E+01   4.926E+01  1.505E+00 
5.003E+01   4.966E+01  1.496E+00 
5.068E+01   5.006E+01  1.487E+00 
5.134E+01   5.047E+01  1.479E+00 
5.200E+01   5.088E+01  1.470E+00 
5.268E+01   5.129E+01  1.461E+00 
5.336E+01   5.170E+01  1.453E+00 
5.406E+01   5.212E+01  1.444E+00 
5.476E+01   5.254E+01  1.435E+00 
5.547E+01   5.296E+01  1.427E+00 
5.619E+01   5.339E+01  1.418E+00 
5.692E+01   5.382E+01  1.409E+00 
5.766E+01   5.426E+01  1.401E+00 
5.841E+01   5.469E+01  1.392E+00 
5.917E+01   5.514E+01  1.384E+00 
5.994E+01   5.558E+01  1.375E+00 
6.072E+01   5.603E+01  1.367E+00 
6.151E+01   5.648E+01  1.358E+00 
6.231E+01   5.693E+01  1.350E+00 
6.312E+01   5.739E+01  1.341E+00 
6.394E+01   5.785E+01  1.333E+00 
6.477E+01   5.831E+01  1.324E+00 
6.561E+01   5.878E+01  1.316E+00 
6.646E+01   5.925E+01  1.307E+00 
6.733E+01   5.972E+01  1.299E+00 
6.820E+01   6.019E+01  1.291E+00 
6.909E+01   6.067E+01  1.282E+00 
6.999E+01   6.115E+01  1.274E+00 
7.090E+01   6.164E+01  1.266E+00 
7.182E+01   6.212E+01  1.257E+00 
7.275E+01   6.261E+01  1.249E+00 
7.370E+01   6.311E+01  1.241E+00 
7.465E+01   6.360E+01  1.233E+00 
7.562E+01   6.410E+01  1.224E+00 
7.661E+01   6.460E+01  1.216E+00 
7.760E+01   6.510E+01  1.208E+00 
7.861E+01   6.561E+01  1.200E+00 
7.963E+01   6.612E+01  1.192E+00 
8.067E+01   6.663E+01  1.184E+00 
8.172E+01   6.714E+01  1.176E+00 
8.278E+01   6.765E+01  1.168E+00 
8.385E+01   6.817E+01  1.160E+00 
8.494E+01   6.869E+01  1.152E+00 
8.605E+01   6.921E+01  1.144E+00 
8.717E+01   6.973E+01  1.136E+00 
8.830E+01   7.026E+01  1.128E+00 
8.945E+01   7.078E+01  1.120E+00 
9.061E+01   7.131E+01  1.112E+00 
9.179E+01   7.184E+01  1.105E+00 
9.298E+01   7.237E+01  1.097E+00 
9.419E+01   7.290E+01  1.089E+00 
9.541E+01   7.343E+01  1.081E+00 
9.665E+01   7.396E+01  1.074E+00 
9.791E+01   7.449E+01  1.066E+00 
9.918E+01   7.503E+01  1.058E+00 
1.005E+02   7.556E+01  1.051E+00 
1.018E+02   7.610E+01  1.043E+00 
1.031E+02   7.663E+01  1.036E+00 
1.044E+02   7.717E+01  1.028E+00 
1.058E+02   7.770E+01  1.021E+00 
1.072E+02   7.823E+01  1.013E+00 
1.086E+02   7.877E+01  1.006E+00 
1.100E+02   7.930E+01  9.985E-01 
1.114E+02   7.983E+01  9.912E-01 
1.129E+02   8.036E+01  9.839E-01 
1.143E+02   8.089E+01  9.766E-01 
1.158E+02   8.142E+01  9.694E-01 
1.173E+02   8.195E+01  9.622E-01 
1.188E+02   8.247E+01  9.550E-01 
1.204E+02   8.300E+01  9.478E-01 
1.219E+02   8.352E+01  9.407E-01 
1.235E+02   8.404E+01  9.337E-01 
1.251E+02   8.456E+01  9.266E-01 
1.268E+02   8.507E+01  9.196E-01 
1.284E+02   8.559E+01  9.126E-01 
1.301E+02   8.610E+01  9.057E-01 
1.318E+02   8.660E+01  8.988E-01 
1.335E+02   8.711E+01  8.919E-01 
1.352E+02   8.761E+01  8.851E-01 
1.370E+02   8.811E+01  8.783E-01 
1.388E+02   8.860E+01  8.715E-01 
1.406E+02   8.909E+01  8.648E-01 
1.424E+02   8.958E+01  8.581E-01 
1.442E+02   9.006E+01  8.514E-01 
1.461E+02   9.054E+01  8.448E-01 
1.480E+02   9.102E+01  8.382E-01 
1.499E+02   9.149E+01  8.317E-01 
1.519E+02   9.196E+01  8.251E-01 
1.539E+02   9.243E+01  8.186E-01 
1.559E+02   9.289E+01  8.122E-01 
1.579E+02   9.334E+01  8.058E-01 
1.599E+02   9.380E+01  7.994E-01 
1.620E+02   9.424E+01  7.931E-01 
1.641E+02   9.469E+01  7.867E-01 
1.662E+02   9.513E+01  7.805E-01 
1.684E+02   9.556E+01  7.742E-01 
1.706E+02   9.600E+01  7.680E-01 
1.728E+02   9.642E+01  7.619E-01 
1.751E+02   9.685E+01  7.557E-01 
1.773E+02   9.727E+01  7.496E-01 
1.796E+02   9.768E+01  7.436E-01 
1.820E+02   9.809E+01  7.376E-01 
1.843E+02   9.850E+01  7.316E-01 
1.867E+02   9.891E+01  7.256E-01 
1.892E+02   9.931E+01  7.197E-01 
1.916E+02   9.970E+01  7.138E-01 
1.941E+02   1.001E+02  7.080E-01 
1.966E+02   1.005E+02  7.022E-01 
1.992E+02   1.009E+02  6.964E-01 
2.018E+02   1.013E+02  6.906E-01 
2.044E+02   1.016E+02  6.849E-01 
2.071E+02   1.020E+02  6.793E-01 
2.097E+02   1.024E+02  6.736E-01 
2.125E+02   1.028E+02  6.680E-01 
2.152E+02   1.031E+02  6.625E-01 
2.180E+02   1.035E+02  6.570E-01 
2.209E+02   1.039E+02  6.515E-01 
2.237E+02   1.042E+02  6.460E-01 
2.266E+02   1.046E+02  6.406E-01 
2.296E+02   1.050E+02  6.352E-01 
2.326E+02   1.053E+02  6.298E-01 
2.356E+02   1.057E+02  6.245E-01 
2.387E+02   1.061E+02  6.192E-01 
2.418E+02   1.064E+02  6.140E-01 
2.449E+02   1.068E+02  6.088E-01 
2.481E+02   1.071E+02  6.036E-01 
2.513E+02   1.075E+02  5.985E-01 
2.546E+02   1.078E+02  5.934E-01 
2.579E+02   1.082E+02  5.883E-01 
2.612E+02   1.085E+02  5.832E-01 
2.646E+02   1.089E+02  5.782E-01 
2.681E+02   1.093E+02  5.733E-01 
2.716E+02   1.096E+02  5.683E-01 
2.751E+02   1.100E+02  5.634E-01 
2.787E+02   1.103E+02  5.586E-01 
2.823E+02   1.107E+02  5.537E-01 
2.859E+02   1.110E+02  5.489E-01 
2.897E+02   1.114E+02  5.441E-01 
2.934E+02   1.117E+02  5.394E-01 
2.972E+02   1.121E+02  5.347E-01 
3.011E+02   1.125E+02  5.300E-01 
3.050E+02   1.128E+02  5.254E-01 
3.090E+02   1.132E+02  5.208E-01 
3.130E+02   1.135E+02  5.162E-01 
3.171E+02   1.139E+02  5.117E-01 
3.212E+02   1.142E+02  5.072E-01 
3.254E+02   1.146E+02  5.027E-01 
3.296E+02   1.150E+02  4.983E-01 
3.339E+02   1.153E+02  4.939E-01 
3.382E+02   1.157E+02  4.895E-01 
3.426E+02   1.160E+02  4.851E-01 
3.471E+02   1.164E+02  4.808E-01 
3.516E+02   1.168E+02  4.766E-01 
3.561E+02   1.171E+02  4.723E-01 
3.608E+02   1.175E+02  4.681E-01 
3.655E+02   1.178E+02  4.639E-01 
3.702E+02   1.182E+02  4.598E-01 
3.750E+02   1.185E+02  4.556E-01 
3.799E+02   1.189E+02  4.515E-01 
3.848E+02   1.192E+02  4.475E-01 
3.898E+02   1.196E+02  4.434E-01 
3.949E+02   1.199E+02  4.394E-01 
4.000E+02   1.203E+02  4.355E-01 
4.052E+02   1.206E+02  4.315E-01 
4.105E+02   1.210E+02  4.276E-01 
4.158E+02   1.213E+02  4.237E-01 
4.212E+02   1.217E+02  4.199E-01 
4.267E+02   1.220E+02  4.147E-01 
4.323E+02   1.223E+02  4.110E-01 
4.379E+02   1.227E+02  4.072E-01 
4.436E+02   1.230E+02  4.035E-01 
4.493E+02   1.233E+02  3.998E-01 
4.552E+02   1.236E+02  3.962E-01 
4.611E+02   1.240E+02  3.926E-01 
4.671E+02   1.243E+02  3.890E-01 
4.731E+02   1.246E+02  3.854E-01 
4.793E+02   1.249E+02  3.818E-01 
4.855E+02   1.252E+02  3.783E-01 
4.918E+02   1.255E+02  3.748E-01 
4.982E+02   1.258E+02  3.714E-01 
5.047E+02   1.261E+02  3.679E-01 
5.113E+02   1.264E+02  3.645E-01 
5.179E+02   1.266E+02  3.611E-01 
5.246E+02   1.269E+02  3.578E-01 
5.315E+02   1.272E+02  3.545E-01 
5.384E+02   1.274E+02  3.512E-01 
5.454E+02   1.277E+02  3.479E-01 
5.524E+02   1.279E+02  3.446E-01 
5.596E+02   1.282E+02  3.414E-01 
5.669E+02   1.284E+02  3.382E-01 
5.743E+02   1.286E+02  3.351E-01 
5.817E+02   1.289E+02  3.319E-01 
5.893E+02   1.291E+02  3.288E-01 
5.969E+02   1.293E+02  3.257E-01 
6.047E+02   1.295E+02  3.226E-01 
6.126E+02   1.297E+02  3.196E-01 
6.205E+02   1.299E+02  3.166E-01 
6.286E+02   1.300E+02  3.136E-01 
6.368E+02   1.302E+02  3.106E-01 
6.450E+02   1.304E+02  3.077E-01 
6.534E+02   1.305E+02  3.047E-01 
6.619E+02   1.307E+02  3.018E-01 
6.705E+02   1.308E+02  2.990E-01 
6.792E+02   1.309E+02  2.961E-01 
6.881E+02   1.311E+02  2.933E-01 
6.970E+02   1.312E+02  2.905E-01 
7.061E+02   1.313E+02  2.877E-01 
7.152E+02   1.314E+02  2.850E-01 
7.245E+02   1.315E+02  2.822E-01 
7.339E+02   1.315E+02  2.795E-01 
7.435E+02   1.316E+02  2.768E-01 
7.531E+02   1.317E+02  2.742E-01 
7.629E+02   1.317E+02  2.715E-01 
7.728E+02   1.318E+02  2.689E-01 
7.829E+02   1.318E+02  2.663E-01 
7.931E+02   1.318E+02  2.638E-01 
8.034E+02   1.318E+02  2.612E-01 
8.138E+02   1.318E+02  2.587E-01 
8.244E+02   1.318E+02  2.562E-01 
8.351E+02   1.318E+02  2.537E-01 
8.460E+02   1.318E+02  2.512E-01 
8.570E+02   1.317E+02  2.488E-01 
8.681E+02   1.317E+02  2.464E-01 
8.794E+02   1.316E+02  2.440E-01 
8.908E+02   1.316E+02  2.416E-01 
9.024E+02   1.315E+02  2.393E-01 
9.141E+02   1.314E+02  2.369E-01 
9.260E+02   1.313E+02  2.346E-01 
9.380E+02   1.312E+02  2.323E-01 
9.502E+02   1.311E+02  2.300E-01 
9.626E+02   1.310E+02  2.278E-01 
9.751E+02   1.308E+02  2.255E-01 
9.877E+02   1.307E+02  2.233E-01 
1.001E+03   1.305E+02  2.211E-01 
1.014E+03   1.304E+02  2.190E-01 
1.027E+03   1.302E+02  2.168E-01 
1.040E+03   1.300E+02  2.147E-01 
1.054E+03   1.298E+02  2.126E-01 
1.067E+03   1.296E+02  2.105E-01 
1.081E+03   1.294E+02  2.084E-01 
1.095E+03   1.292E+02  2.063E-01 
1.109E+03   1.290E+02  2.043E-01 
1.124E+03   1.288E+02  2.022E-01 
1.138E+03   1.285E+02  2.002E-01 
1.153E+03   1.283E+02  1.983E-01 
1.168E+03   1.280E+02  1.963E-01 
1.183E+03   1.277E+02  1.943E-01 
1.199E+03   1.275E+02  1.924E-01 
1.214E+03   1.272E+02  1.905E-01 
1.230E+03   1.269E+02  1.886E-01 
1.246E+03   1.266E+02  1.867E-01 
1.262E+03   1.263E+02  1.848E-01 
1.279E+03   1.260E+02  1.830E-01 
1.295E+03   1.256E+02  1.812E-01 
1.312E+03   1.253E+02  1.794E-01 
1.329E+03   1.250E+02  1.776E-01 
1.347E+03   1.246E+02  1.758E-01 
1.364E+03   1.243E+02  1.740E-01 
1.382E+03   1.239E+02  1.723E-01 
1.400E+03   1.235E+02  1.705E-01 
1.418E+03   1.232E+02  1.688E-01 
1.436E+03   1.228E+02  1.671E-01 
1.455E+03   1.224E+02  1.654E-01 
1.474E+03   1.220E+02  1.638E-01 
1.493E+03   1.216E+02  1.621E-01 
1.513E+03   1.212E+02  1.605E-01 
1.532E+03   1.208E+02  1.589E-01 
1.552E+03   1.203E+02  1.573E-01 
1.572E+03   1.199E+02  1.557E-01 
1.593E+03   1.195E+02  1.541E-01 
1.613E+03   1.190E+02  1.525E-01 
1.634E+03   1.186E+02  1.510E-01 
1.656E+03   1.181E+02  1.495E-01 
1.677E+03   1.177E+02  1.479E-01 
1.699E+03   1.172E+02  1.464E-01 
1.721E+03   1.168E+02  1.449E-01 
1.743E+03   1.163E+02  1.435E-01 
1.766E+03   1.158E+02  1.420E-01 
1.789E+03   1.153E+02  1.406E-01 
1.812E+03   1.148E+02  1.391E-01 
1.836E+03   1.144E+02  1.377E-01 
1.860E+03   1.139E+02  1.363E-01 
