Ion = Helium      . Mass = 4.0026
Tgt = Pm (Solid). Density = 6.475 g/cm3
Stopping Units =  eV/(1E15 atoms/cm2)
Energy(keV)  S(Elec)    S(Nuc)
1.000E+00   5.592E+00  2.064E+00 
1.013E+00   5.629E+00  2.070E+00 
1.026E+00   5.665E+00  2.075E+00 
1.039E+00   5.702E+00  2.080E+00 
1.053E+00   5.739E+00  2.085E+00 
1.067E+00   5.776E+00  2.091E+00 
1.081E+00   5.813E+00  2.096E+00 
1.095E+00   5.851E+00  2.101E+00 
1.109E+00   5.889E+00  2.106E+00 
1.123E+00   5.927E+00  2.111E+00 
1.138E+00   5.965E+00  2.116E+00 
1.153E+00   6.004E+00  2.121E+00 
1.168E+00   6.043E+00  2.126E+00 
1.183E+00   6.082E+00  2.131E+00 
1.198E+00   6.121E+00  2.136E+00 
1.214E+00   6.161E+00  2.141E+00 
1.229E+00   6.201E+00  2.146E+00 
1.245E+00   6.241E+00  2.151E+00 
1.262E+00   6.282E+00  2.156E+00 
1.278E+00   6.322E+00  2.161E+00 
1.295E+00   6.363E+00  2.165E+00 
1.311E+00   6.404E+00  2.170E+00 
1.329E+00   6.446E+00  2.175E+00 
1.346E+00   6.488E+00  2.180E+00 
1.363E+00   6.530E+00  2.184E+00 
1.381E+00   6.572E+00  2.189E+00 
1.399E+00   6.615E+00  2.194E+00 
1.417E+00   6.657E+00  2.198E+00 
1.436E+00   6.700E+00  2.203E+00 
1.454E+00   6.744E+00  2.207E+00 
1.473E+00   6.788E+00  2.212E+00 
1.492E+00   6.832E+00  2.216E+00 
1.512E+00   6.876E+00  2.221E+00 
1.531E+00   6.920E+00  2.225E+00 
1.551E+00   6.965E+00  2.229E+00 
1.571E+00   7.010E+00  2.234E+00 
1.592E+00   7.056E+00  2.238E+00 
1.612E+00   7.101E+00  2.242E+00 
1.633E+00   7.147E+00  2.246E+00 
1.655E+00   7.194E+00  2.250E+00 
1.676E+00   7.240E+00  2.254E+00 
1.698E+00   7.287E+00  2.259E+00 
1.720E+00   7.334E+00  2.263E+00 
1.742E+00   7.382E+00  2.267E+00 
1.765E+00   7.430E+00  2.271E+00 
1.788E+00   7.478E+00  2.275E+00 
1.811E+00   7.526E+00  2.278E+00 
1.835E+00   7.575E+00  2.282E+00 
1.859E+00   7.624E+00  2.286E+00 
1.883E+00   7.673E+00  2.290E+00 
1.907E+00   7.723E+00  2.294E+00 
1.932E+00   7.773E+00  2.297E+00 
1.957E+00   7.824E+00  2.301E+00 
1.983E+00   7.874E+00  2.305E+00 
2.008E+00   7.925E+00  2.308E+00 
2.034E+00   7.977E+00  2.312E+00 
2.061E+00   8.028E+00  2.315E+00 
2.088E+00   8.080E+00  2.319E+00 
2.115E+00   8.133E+00  2.322E+00 
2.142E+00   8.185E+00  2.325E+00 
2.170E+00   8.238E+00  2.329E+00 
2.198E+00   8.292E+00  2.332E+00 
2.227E+00   8.345E+00  2.335E+00 
2.256E+00   8.399E+00  2.338E+00 
2.285E+00   8.454E+00  2.341E+00 
2.315E+00   8.508E+00  2.344E+00 
2.345E+00   8.564E+00  2.347E+00 
2.375E+00   8.619E+00  2.350E+00 
2.406E+00   8.675E+00  2.353E+00 
2.438E+00   8.731E+00  2.356E+00 
2.469E+00   8.788E+00  2.359E+00 
2.501E+00   8.845E+00  2.362E+00 
2.534E+00   8.902E+00  2.365E+00 
2.567E+00   8.960E+00  2.367E+00 
2.600E+00   9.018E+00  2.370E+00 
2.634E+00   9.076E+00  2.372E+00 
2.668E+00   9.135E+00  2.375E+00 
2.703E+00   9.194E+00  2.378E+00 
2.738E+00   9.253E+00  2.380E+00 
2.773E+00   9.313E+00  2.382E+00 
2.810E+00   9.374E+00  2.385E+00 
2.846E+00   9.434E+00  2.387E+00 
2.883E+00   9.496E+00  2.389E+00 
2.921E+00   9.557E+00  2.391E+00 
2.958E+00   9.619E+00  2.393E+00 
2.997E+00   9.681E+00  2.396E+00 
3.036E+00   9.744E+00  2.398E+00 
3.075E+00   9.807E+00  2.400E+00 
3.115E+00   9.871E+00  2.401E+00 
3.156E+00   9.935E+00  2.403E+00 
3.197E+00   9.999E+00  2.405E+00 
3.238E+00   1.006E+01  2.407E+00 
3.280E+00   1.013E+01  2.409E+00 
3.323E+00   1.019E+01  2.410E+00 
3.366E+00   1.026E+01  2.412E+00 
3.410E+00   1.033E+01  2.413E+00 
3.454E+00   1.039E+01  2.415E+00 
3.499E+00   1.046E+01  2.416E+00 
3.545E+00   1.053E+01  2.417E+00 
3.591E+00   1.060E+01  2.419E+00 
3.637E+00   1.067E+01  2.420E+00 
3.685E+00   1.073E+01  2.421E+00 
3.733E+00   1.080E+01  2.422E+00 
3.781E+00   1.087E+01  2.423E+00 
3.830E+00   1.094E+01  2.424E+00 
3.880E+00   1.102E+01  2.425E+00 
3.930E+00   1.109E+01  2.426E+00 
3.982E+00   1.116E+01  2.427E+00 
4.033E+00   1.123E+01  2.428E+00 
4.086E+00   1.130E+01  2.428E+00 
4.139E+00   1.138E+01  2.429E+00 
4.193E+00   1.145E+01  2.430E+00 
4.247E+00   1.152E+01  2.430E+00 
4.302E+00   1.160E+01  2.431E+00 
4.358E+00   1.167E+01  2.431E+00 
4.415E+00   1.175E+01  2.431E+00 
4.472E+00   1.183E+01  2.431E+00 
4.530E+00   1.190E+01  2.432E+00 
4.589E+00   1.198E+01  2.432E+00 
4.649E+00   1.206E+01  2.432E+00 
4.709E+00   1.214E+01  2.432E+00 
4.770E+00   1.221E+01  2.432E+00 
4.832E+00   1.229E+01  2.432E+00 
4.895E+00   1.237E+01  2.431E+00 
4.959E+00   1.245E+01  2.431E+00 
5.023E+00   1.253E+01  2.431E+00 
5.089E+00   1.262E+01  2.431E+00 
5.155E+00   1.270E+01  2.430E+00 
5.222E+00   1.278E+01  2.430E+00 
5.290E+00   1.286E+01  2.429E+00 
5.358E+00   1.295E+01  2.428E+00 
5.428E+00   1.303E+01  2.428E+00 
5.499E+00   1.311E+01  2.427E+00 
5.570E+00   1.320E+01  2.426E+00 
5.642E+00   1.328E+01  2.425E+00 
5.716E+00   1.337E+01  2.424E+00 
5.790E+00   1.346E+01  2.423E+00 
5.865E+00   1.354E+01  2.422E+00 
5.942E+00   1.363E+01  2.421E+00 
6.019E+00   1.372E+01  2.419E+00 
6.097E+00   1.381E+01  2.418E+00 
6.176E+00   1.390E+01  2.417E+00 
6.256E+00   1.399E+01  2.415E+00 
6.338E+00   1.408E+01  2.414E+00 
6.420E+00   1.417E+01  2.412E+00 
6.504E+00   1.426E+01  2.411E+00 
6.588E+00   1.435E+01  2.409E+00 
6.674E+00   1.445E+01  2.407E+00 
6.760E+00   1.454E+01  2.405E+00 
6.848E+00   1.463E+01  2.403E+00 
6.937E+00   1.473E+01  2.401E+00 
7.027E+00   1.482E+01  2.399E+00 
7.119E+00   1.492E+01  2.397E+00 
7.211E+00   1.502E+01  2.395E+00 
7.305E+00   1.511E+01  2.393E+00 
7.400E+00   1.521E+01  2.390E+00 
7.496E+00   1.531E+01  2.388E+00 
7.594E+00   1.541E+01  2.385E+00 
7.692E+00   1.551E+01  2.383E+00 
7.792E+00   1.561E+01  2.380E+00 
7.894E+00   1.571E+01  2.377E+00 
7.996E+00   1.581E+01  2.375E+00 
8.100E+00   1.592E+01  2.372E+00 
8.205E+00   1.603E+01  2.369E+00 
8.312E+00   1.613E+01  2.366E+00 
8.420E+00   1.624E+01  2.363E+00 
8.529E+00   1.635E+01  2.360E+00 
8.640E+00   1.646E+01  2.357E+00 
8.753E+00   1.657E+01  2.354E+00 
8.866E+00   1.669E+01  2.350E+00 
8.982E+00   1.680E+01  2.347E+00 
9.098E+00   1.691E+01  2.343E+00 
9.217E+00   1.703E+01  2.340E+00 
9.336E+00   1.715E+01  2.336E+00 
9.458E+00   1.727E+01  2.333E+00 
9.581E+00   1.738E+01  2.329E+00 
9.705E+00   1.751E+01  2.325E+00 
9.831E+00   1.763E+01  2.321E+00 
9.959E+00   1.775E+01  2.318E+00 
1.009E+01   1.787E+01  2.314E+00 
1.022E+01   1.800E+01  2.310E+00 
1.035E+01   1.813E+01  2.305E+00 
1.049E+01   1.825E+01  2.301E+00 
1.062E+01   1.838E+01  2.297E+00 
1.076E+01   1.851E+01  2.293E+00 
1.090E+01   1.865E+01  2.288E+00 
1.104E+01   1.878E+01  2.284E+00 
1.119E+01   1.891E+01  2.279E+00 
1.133E+01   1.905E+01  2.275E+00 
1.148E+01   1.918E+01  2.270E+00 
1.163E+01   1.932E+01  2.266E+00 
1.178E+01   1.946E+01  2.261E+00 
1.193E+01   1.960E+01  2.256E+00 
1.209E+01   1.975E+01  2.251E+00 
1.224E+01   1.989E+01  2.246E+00 
1.240E+01   2.003E+01  2.241E+00 
1.256E+01   2.018E+01  2.236E+00 
1.273E+01   2.033E+01  2.231E+00 
1.289E+01   2.048E+01  2.226E+00 
1.306E+01   2.063E+01  2.221E+00 
1.323E+01   2.078E+01  2.215E+00 
1.340E+01   2.094E+01  2.210E+00 
1.358E+01   2.109E+01  2.205E+00 
1.375E+01   2.125E+01  2.199E+00 
1.393E+01   2.141E+01  2.194E+00 
1.411E+01   2.157E+01  2.188E+00 
1.430E+01   2.173E+01  2.182E+00 
1.448E+01   2.189E+01  2.177E+00 
1.467E+01   2.206E+01  2.171E+00 
1.486E+01   2.222E+01  2.165E+00 
1.505E+01   2.239E+01  2.159E+00 
1.525E+01   2.256E+01  2.153E+00 
1.545E+01   2.273E+01  2.147E+00 
1.565E+01   2.291E+01  2.141E+00 
1.585E+01   2.308E+01  2.135E+00 
1.606E+01   2.326E+01  2.129E+00 
1.627E+01   2.344E+01  2.123E+00 
1.648E+01   2.362E+01  2.117E+00 
1.669E+01   2.380E+01  2.110E+00 
1.691E+01   2.398E+01  2.104E+00 
1.713E+01   2.417E+01  2.098E+00 
1.735E+01   2.435E+01  2.091E+00 
1.758E+01   2.454E+01  2.085E+00 
1.781E+01   2.473E+01  2.078E+00 
1.804E+01   2.493E+01  2.071E+00 
1.827E+01   2.512E+01  2.065E+00 
1.851E+01   2.532E+01  2.058E+00 
1.875E+01   2.552E+01  2.051E+00 
1.899E+01   2.572E+01  2.045E+00 
1.924E+01   2.592E+01  2.038E+00 
1.949E+01   2.612E+01  2.031E+00 
1.974E+01   2.633E+01  2.024E+00 
2.000E+01   2.654E+01  2.017E+00 
2.026E+01   2.675E+01  2.010E+00 
2.052E+01   2.696E+01  2.003E+00 
2.079E+01   2.718E+01  1.996E+00 
2.106E+01   2.739E+01  1.989E+00 
2.133E+01   2.761E+01  1.982E+00 
2.161E+01   2.783E+01  1.974E+00 
2.189E+01   2.806E+01  1.967E+00 
2.218E+01   2.828E+01  1.960E+00 
2.247E+01   2.851E+01  1.953E+00 
2.276E+01   2.874E+01  1.945E+00 
2.305E+01   2.897E+01  1.938E+00 
2.335E+01   2.921E+01  1.930E+00 
2.366E+01   2.944E+01  1.923E+00 
2.396E+01   2.968E+01  1.915E+00 
2.428E+01   2.992E+01  1.908E+00 
2.459E+01   3.017E+01  1.900E+00 
2.491E+01   3.041E+01  1.893E+00 
2.523E+01   3.066E+01  1.885E+00 
2.556E+01   3.091E+01  1.877E+00 
2.589E+01   3.116E+01  1.870E+00 
2.623E+01   3.142E+01  1.862E+00 
2.657E+01   3.168E+01  1.854E+00 
2.692E+01   3.194E+01  1.847E+00 
2.727E+01   3.220E+01  1.839E+00 
2.762E+01   3.247E+01  1.831E+00 
2.798E+01   3.273E+01  1.823E+00 
2.834E+01   3.301E+01  1.815E+00 
2.871E+01   3.328E+01  1.807E+00 
2.909E+01   3.355E+01  1.799E+00 
2.946E+01   3.383E+01  1.791E+00 
2.985E+01   3.411E+01  1.783E+00 
3.023E+01   3.440E+01  1.775E+00 
3.063E+01   3.468E+01  1.767E+00 
3.103E+01   3.497E+01  1.759E+00 
3.143E+01   3.526E+01  1.751E+00 
3.184E+01   3.556E+01  1.743E+00 
3.225E+01   3.586E+01  1.735E+00 
3.267E+01   3.616E+01  1.727E+00 
3.309E+01   3.646E+01  1.719E+00 
3.352E+01   3.676E+01  1.711E+00 
3.396E+01   3.707E+01  1.703E+00 
3.440E+01   3.738E+01  1.695E+00 
3.485E+01   3.770E+01  1.686E+00 
3.530E+01   3.802E+01  1.678E+00 
3.576E+01   3.834E+01  1.670E+00 
3.623E+01   3.866E+01  1.662E+00 
3.670E+01   3.898E+01  1.653E+00 
3.717E+01   3.931E+01  1.645E+00 
3.766E+01   3.965E+01  1.637E+00 
3.815E+01   3.998E+01  1.629E+00 
3.864E+01   4.032E+01  1.620E+00 
3.914E+01   4.066E+01  1.612E+00 
3.965E+01   4.100E+01  1.604E+00 
4.017E+01   4.135E+01  1.596E+00 
4.069E+01   4.170E+01  1.587E+00 
4.122E+01   4.205E+01  1.579E+00 
4.175E+01   4.241E+01  1.571E+00 
4.230E+01   4.277E+01  1.562E+00 
4.285E+01   4.313E+01  1.554E+00 
4.340E+01   4.349E+01  1.546E+00 
4.397E+01   4.386E+01  1.538E+00 
4.454E+01   4.424E+01  1.529E+00 
4.512E+01   4.461E+01  1.521E+00 
4.570E+01   4.499E+01  1.513E+00 
4.630E+01   4.537E+01  1.504E+00 
4.690E+01   4.575E+01  1.496E+00 
4.751E+01   4.614E+01  1.488E+00 
4.813E+01   4.653E+01  1.479E+00 
4.875E+01   4.693E+01  1.471E+00 
4.939E+01   4.732E+01  1.463E+00 
5.003E+01   4.772E+01  1.454E+00 
5.068E+01   4.813E+01  1.446E+00 
5.134E+01   4.853E+01  1.438E+00 
5.200E+01   4.895E+01  1.430E+00 
5.268E+01   4.936E+01  1.421E+00 
5.336E+01   4.978E+01  1.413E+00 
5.406E+01   5.020E+01  1.405E+00 
5.476E+01   5.062E+01  1.397E+00 
5.547E+01   5.104E+01  1.388E+00 
5.619E+01   5.147E+01  1.380E+00 
5.692E+01   5.191E+01  1.372E+00 
5.766E+01   5.234E+01  1.364E+00 
5.841E+01   5.278E+01  1.356E+00 
5.917E+01   5.323E+01  1.347E+00 
5.994E+01   5.367E+01  1.339E+00 
6.072E+01   5.412E+01  1.331E+00 
6.151E+01   5.457E+01  1.323E+00 
6.231E+01   5.503E+01  1.315E+00 
6.312E+01   5.549E+01  1.307E+00 
6.394E+01   5.595E+01  1.299E+00 
6.477E+01   5.641E+01  1.290E+00 
6.561E+01   5.688E+01  1.282E+00 
6.646E+01   5.735E+01  1.274E+00 
6.733E+01   5.783E+01  1.266E+00 
6.820E+01   5.830E+01  1.258E+00 
6.909E+01   5.878E+01  1.250E+00 
6.999E+01   5.927E+01  1.242E+00 
7.090E+01   5.975E+01  1.234E+00 
7.182E+01   6.024E+01  1.226E+00 
7.275E+01   6.074E+01  1.219E+00 
7.370E+01   6.123E+01  1.211E+00 
7.465E+01   6.173E+01  1.203E+00 
7.562E+01   6.223E+01  1.195E+00 
7.661E+01   6.273E+01  1.187E+00 
7.760E+01   6.324E+01  1.179E+00 
7.861E+01   6.375E+01  1.171E+00 
7.963E+01   6.426E+01  1.164E+00 
8.067E+01   6.478E+01  1.156E+00 
8.172E+01   6.530E+01  1.148E+00 
8.278E+01   6.582E+01  1.140E+00 
8.385E+01   6.634E+01  1.133E+00 
8.494E+01   6.687E+01  1.125E+00 
8.605E+01   6.740E+01  1.117E+00 
8.717E+01   6.793E+01  1.110E+00 
8.830E+01   6.846E+01  1.102E+00 
8.945E+01   6.900E+01  1.095E+00 
9.061E+01   6.954E+01  1.087E+00 
9.179E+01   7.008E+01  1.080E+00 
9.298E+01   7.063E+01  1.072E+00 
9.419E+01   7.117E+01  1.065E+00 
9.541E+01   7.172E+01  1.057E+00 
9.665E+01   7.227E+01  1.050E+00 
9.791E+01   7.282E+01  1.042E+00 
9.918E+01   7.338E+01  1.035E+00 
1.005E+02   7.394E+01  1.028E+00 
1.018E+02   7.450E+01  1.021E+00 
1.031E+02   7.506E+01  1.013E+00 
1.044E+02   7.562E+01  1.006E+00 
1.058E+02   7.619E+01  9.988E-01 
1.072E+02   7.675E+01  9.917E-01 
1.086E+02   7.732E+01  9.845E-01 
1.100E+02   7.789E+01  9.774E-01 
1.114E+02   7.847E+01  9.703E-01 
1.129E+02   7.904E+01  9.633E-01 
1.143E+02   7.962E+01  9.562E-01 
1.158E+02   8.020E+01  9.492E-01 
1.173E+02   8.078E+01  9.423E-01 
1.188E+02   8.136E+01  9.353E-01 
1.204E+02   8.194E+01  9.284E-01 
1.219E+02   8.252E+01  9.215E-01 
1.235E+02   8.311E+01  9.147E-01 
1.251E+02   8.370E+01  9.079E-01 
1.268E+02   8.428E+01  9.011E-01 
1.284E+02   8.487E+01  8.944E-01 
1.301E+02   8.546E+01  8.876E-01 
1.318E+02   8.605E+01  8.810E-01 
1.335E+02   8.665E+01  8.743E-01 
1.352E+02   8.724E+01  8.677E-01 
1.370E+02   8.783E+01  8.611E-01 
1.388E+02   8.843E+01  8.545E-01 
1.406E+02   8.903E+01  8.480E-01 
1.424E+02   8.962E+01  8.415E-01 
1.442E+02   9.022E+01  8.351E-01 
1.461E+02   9.082E+01  8.286E-01 
1.480E+02   9.142E+01  8.222E-01 
1.499E+02   9.202E+01  8.159E-01 
1.519E+02   9.261E+01  8.096E-01 
1.539E+02   9.321E+01  8.033E-01 
1.559E+02   9.382E+01  7.970E-01 
1.579E+02   9.442E+01  7.908E-01 
1.599E+02   9.502E+01  7.846E-01 
1.620E+02   9.562E+01  7.784E-01 
1.641E+02   9.622E+01  7.723E-01 
1.662E+02   9.682E+01  7.662E-01 
1.684E+02   9.742E+01  7.601E-01 
1.706E+02   9.802E+01  7.541E-01 
1.728E+02   9.862E+01  7.481E-01 
1.751E+02   9.922E+01  7.422E-01 
1.773E+02   9.982E+01  7.362E-01 
1.796E+02   1.004E+02  7.303E-01 
1.820E+02   1.010E+02  7.245E-01 
1.843E+02   1.016E+02  7.187E-01 
1.867E+02   1.022E+02  7.129E-01 
1.892E+02   1.028E+02  7.071E-01 
1.916E+02   1.034E+02  7.014E-01 
1.941E+02   1.040E+02  6.957E-01 
1.966E+02   1.046E+02  6.901E-01 
1.992E+02   1.052E+02  6.844E-01 
2.018E+02   1.058E+02  6.788E-01 
2.044E+02   1.064E+02  6.733E-01 
2.071E+02   1.070E+02  6.678E-01 
2.097E+02   1.075E+02  6.623E-01 
2.125E+02   1.081E+02  6.568E-01 
2.152E+02   1.087E+02  6.514E-01 
2.180E+02   1.093E+02  6.460E-01 
2.209E+02   1.099E+02  6.407E-01 
2.237E+02   1.104E+02  6.354E-01 
2.266E+02   1.110E+02  6.301E-01 
2.296E+02   1.116E+02  6.248E-01 
2.326E+02   1.122E+02  6.196E-01 
2.356E+02   1.127E+02  6.144E-01 
2.387E+02   1.133E+02  6.093E-01 
2.418E+02   1.139E+02  6.041E-01 
2.449E+02   1.144E+02  5.991E-01 
2.481E+02   1.150E+02  5.940E-01 
2.513E+02   1.155E+02  5.890E-01 
2.546E+02   1.161E+02  5.840E-01 
2.579E+02   1.166E+02  5.791E-01 
2.612E+02   1.172E+02  5.741E-01 
2.646E+02   1.177E+02  5.692E-01 
2.681E+02   1.182E+02  5.644E-01 
2.716E+02   1.188E+02  5.596E-01 
2.751E+02   1.193E+02  5.548E-01 
2.787E+02   1.198E+02  5.500E-01 
2.823E+02   1.203E+02  5.453E-01 
2.859E+02   1.209E+02  5.406E-01 
2.897E+02   1.214E+02  5.359E-01 
2.934E+02   1.219E+02  5.313E-01 
2.972E+02   1.224E+02  5.267E-01 
3.011E+02   1.229E+02  5.222E-01 
3.050E+02   1.234E+02  5.176E-01 
3.090E+02   1.239E+02  5.131E-01 
3.130E+02   1.243E+02  5.087E-01 
3.171E+02   1.248E+02  5.042E-01 
3.212E+02   1.253E+02  4.998E-01 
3.254E+02   1.258E+02  4.954E-01 
3.296E+02   1.262E+02  4.911E-01 
3.339E+02   1.267E+02  4.868E-01 
3.382E+02   1.271E+02  4.825E-01 
3.426E+02   1.276E+02  4.782E-01 
3.471E+02   1.280E+02  4.740E-01 
3.516E+02   1.284E+02  4.698E-01 
3.561E+02   1.288E+02  4.657E-01 
3.608E+02   1.293E+02  4.615E-01 
3.655E+02   1.297E+02  4.574E-01 
3.702E+02   1.301E+02  4.534E-01 
3.750E+02   1.305E+02  4.493E-01 
3.799E+02   1.308E+02  4.453E-01 
3.848E+02   1.312E+02  4.414E-01 
3.898E+02   1.316E+02  4.374E-01 
3.949E+02   1.320E+02  4.335E-01 
4.000E+02   1.323E+02  4.296E-01 
4.052E+02   1.327E+02  4.257E-01 
4.105E+02   1.330E+02  4.219E-01 
4.158E+02   1.333E+02  4.181E-01 
4.212E+02   1.337E+02  4.143E-01 
4.267E+02   1.340E+02  4.106E-01 
4.323E+02   1.343E+02  4.069E-01 
4.379E+02   1.346E+02  4.080E-01 
4.436E+02   1.349E+02  4.043E-01 
4.493E+02   1.352E+02  4.006E-01 
4.552E+02   1.355E+02  3.970E-01 
4.611E+02   1.357E+02  3.933E-01 
4.671E+02   1.360E+02  3.897E-01 
4.731E+02   1.362E+02  3.862E-01 
4.793E+02   1.365E+02  3.826E-01 
4.855E+02   1.367E+02  3.791E-01 
4.918E+02   1.369E+02  3.756E-01 
4.982E+02   1.371E+02  3.722E-01 
5.047E+02   1.373E+02  3.687E-01 
5.113E+02   1.375E+02  3.653E-01 
5.179E+02   1.377E+02  3.619E-01 
5.246E+02   1.379E+02  3.586E-01 
5.315E+02   1.381E+02  3.553E-01 
5.384E+02   1.382E+02  3.520E-01 
5.454E+02   1.384E+02  3.487E-01 
5.524E+02   1.385E+02  3.454E-01 
5.596E+02   1.386E+02  3.422E-01 
5.669E+02   1.387E+02  3.390E-01 
5.743E+02   1.388E+02  3.358E-01 
5.817E+02   1.389E+02  3.327E-01 
5.893E+02   1.390E+02  3.296E-01 
5.969E+02   1.391E+02  3.265E-01 
6.047E+02   1.392E+02  3.234E-01 
6.126E+02   1.392E+02  3.204E-01 
6.205E+02   1.393E+02  3.173E-01 
6.286E+02   1.393E+02  3.143E-01 
6.368E+02   1.393E+02  3.114E-01 
6.450E+02   1.394E+02  3.084E-01 
6.534E+02   1.394E+02  3.055E-01 
6.619E+02   1.394E+02  3.026E-01 
6.705E+02   1.394E+02  2.997E-01 
6.792E+02   1.393E+02  2.969E-01 
6.881E+02   1.393E+02  2.940E-01 
6.970E+02   1.393E+02  2.912E-01 
7.061E+02   1.392E+02  2.885E-01 
7.152E+02   1.392E+02  2.857E-01 
7.245E+02   1.391E+02  2.830E-01 
7.339E+02   1.390E+02  2.803E-01 
7.435E+02   1.389E+02  2.776E-01 
7.531E+02   1.388E+02  2.749E-01 
7.629E+02   1.387E+02  2.723E-01 
7.728E+02   1.386E+02  2.697E-01 
7.829E+02   1.385E+02  2.671E-01 
7.931E+02   1.383E+02  2.645E-01 
8.034E+02   1.382E+02  2.619E-01 
8.138E+02   1.380E+02  2.594E-01 
8.244E+02   1.379E+02  2.569E-01 
8.351E+02   1.377E+02  2.544E-01 
8.460E+02   1.375E+02  2.519E-01 
8.570E+02   1.373E+02  2.495E-01 
8.681E+02   1.371E+02  2.471E-01 
8.794E+02   1.369E+02  2.447E-01 
8.908E+02   1.367E+02  2.423E-01 
9.024E+02   1.364E+02  2.399E-01 
9.141E+02   1.362E+02  2.376E-01 
9.260E+02   1.360E+02  2.353E-01 
9.380E+02   1.357E+02  2.330E-01 
9.502E+02   1.354E+02  2.307E-01 
9.626E+02   1.352E+02  2.284E-01 
9.751E+02   1.349E+02  2.262E-01 
9.877E+02   1.346E+02  2.240E-01 
1.001E+03   1.343E+02  2.218E-01 
1.014E+03   1.340E+02  2.196E-01 
1.027E+03   1.337E+02  2.175E-01 
1.040E+03   1.334E+02  2.153E-01 
1.054E+03   1.331E+02  2.132E-01 
1.067E+03   1.327E+02  2.111E-01 
1.081E+03   1.324E+02  2.090E-01 
1.095E+03   1.320E+02  2.069E-01 
1.109E+03   1.317E+02  2.049E-01 
1.124E+03   1.313E+02  2.029E-01 
1.138E+03   1.310E+02  2.009E-01 
1.153E+03   1.306E+02  1.989E-01 
1.168E+03   1.302E+02  1.969E-01 
1.183E+03   1.298E+02  1.949E-01 
1.199E+03   1.294E+02  1.930E-01 
1.214E+03   1.290E+02  1.911E-01 
1.230E+03   1.286E+02  1.892E-01 
1.246E+03   1.282E+02  1.873E-01 
1.262E+03   1.278E+02  1.854E-01 
1.279E+03   1.274E+02  1.836E-01 
1.295E+03   1.269E+02  1.818E-01 
1.312E+03   1.265E+02  1.799E-01 
1.329E+03   1.261E+02  1.781E-01 
1.347E+03   1.256E+02  1.764E-01 
1.364E+03   1.252E+02  1.746E-01 
1.382E+03   1.247E+02  1.728E-01 
1.400E+03   1.243E+02  1.711E-01 
1.418E+03   1.238E+02  1.694E-01 
1.436E+03   1.233E+02  1.677E-01 
1.455E+03   1.228E+02  1.660E-01 
1.474E+03   1.224E+02  1.643E-01 
1.493E+03   1.219E+02  1.627E-01 
1.513E+03   1.214E+02  1.610E-01 
1.532E+03   1.209E+02  1.594E-01 
1.552E+03   1.204E+02  1.578E-01 
1.572E+03   1.199E+02  1.562E-01 
1.593E+03   1.194E+02  1.546E-01 
1.613E+03   1.189E+02  1.531E-01 
1.634E+03   1.184E+02  1.515E-01 
1.656E+03   1.179E+02  1.500E-01 
1.677E+03   1.174E+02  1.484E-01 
1.699E+03   1.168E+02  1.469E-01 
1.721E+03   1.163E+02  1.454E-01 
1.743E+03   1.158E+02  1.440E-01 
1.766E+03   1.153E+02  1.425E-01 
1.789E+03   1.147E+02  1.411E-01 
1.812E+03   1.142E+02  1.396E-01 
1.836E+03   1.137E+02  1.382E-01 
1.860E+03   1.131E+02  1.368E-01 
