Ion = Helium      . Mass = 4.0026
Tgt = Co (Solid). Density = 8.9 g/cm3
Stopping Units =  eV/(1E15 atoms/cm2)
Energy(keV)  S(Elec)    S(Nuc)
1.000E+00   3.204E+00  3.200E+00 
1.013E+00   3.225E+00  3.204E+00 
1.026E+00   3.246E+00  3.208E+00 
1.039E+00   3.267E+00  3.211E+00 
1.053E+00   3.288E+00  3.215E+00 
1.067E+00   3.309E+00  3.219E+00 
1.081E+00   3.331E+00  3.222E+00 
1.095E+00   3.352E+00  3.226E+00 
1.109E+00   3.374E+00  3.229E+00 
1.123E+00   3.396E+00  3.232E+00 
1.138E+00   3.418E+00  3.235E+00 
1.153E+00   3.440E+00  3.238E+00 
1.168E+00   3.462E+00  3.241E+00 
1.183E+00   3.485E+00  3.244E+00 
1.198E+00   3.507E+00  3.247E+00 
1.214E+00   3.530E+00  3.250E+00 
1.229E+00   3.553E+00  3.253E+00 
1.245E+00   3.576E+00  3.255E+00 
1.262E+00   3.599E+00  3.258E+00 
1.278E+00   3.623E+00  3.260E+00 
1.295E+00   3.646E+00  3.263E+00 
1.311E+00   3.670E+00  3.265E+00 
1.329E+00   3.693E+00  3.267E+00 
1.346E+00   3.717E+00  3.269E+00 
1.363E+00   3.741E+00  3.271E+00 
1.381E+00   3.766E+00  3.273E+00 
1.399E+00   3.790E+00  3.275E+00 
1.417E+00   3.815E+00  3.277E+00 
1.436E+00   3.839E+00  3.279E+00 
1.454E+00   3.864E+00  3.280E+00 
1.473E+00   3.889E+00  3.282E+00 
1.492E+00   3.914E+00  3.283E+00 
1.512E+00   3.940E+00  3.285E+00 
1.531E+00   3.965E+00  3.286E+00 
1.551E+00   3.991E+00  3.287E+00 
1.571E+00   4.017E+00  3.288E+00 
1.592E+00   4.043E+00  3.289E+00 
1.612E+00   4.069E+00  3.290E+00 
1.633E+00   4.095E+00  3.291E+00 
1.655E+00   4.122E+00  3.292E+00 
1.676E+00   4.149E+00  3.292E+00 
1.698E+00   4.175E+00  3.293E+00 
1.720E+00   4.202E+00  3.293E+00 
1.742E+00   4.230E+00  3.294E+00 
1.765E+00   4.257E+00  3.294E+00 
1.788E+00   4.285E+00  3.294E+00 
1.811E+00   4.312E+00  3.294E+00 
1.835E+00   4.340E+00  3.294E+00 
1.859E+00   4.368E+00  3.294E+00 
1.883E+00   4.397E+00  3.294E+00 
1.907E+00   4.425E+00  3.293E+00 
1.932E+00   4.454E+00  3.293E+00 
1.957E+00   4.483E+00  3.292E+00 
1.983E+00   4.512E+00  3.292E+00 
2.008E+00   4.541E+00  3.291E+00 
2.034E+00   4.570E+00  3.290E+00 
2.061E+00   4.600E+00  3.290E+00 
2.088E+00   4.630E+00  3.289E+00 
2.115E+00   4.660E+00  3.288E+00 
2.142E+00   4.690E+00  3.286E+00 
2.170E+00   4.720E+00  3.285E+00 
2.198E+00   4.751E+00  3.284E+00 
2.227E+00   4.782E+00  3.282E+00 
2.256E+00   4.813E+00  3.281E+00 
2.285E+00   4.844E+00  3.279E+00 
2.315E+00   4.875E+00  3.277E+00 
2.345E+00   4.907E+00  3.276E+00 
2.375E+00   4.939E+00  3.274E+00 
2.406E+00   4.971E+00  3.272E+00 
2.438E+00   5.003E+00  3.269E+00 
2.469E+00   5.035E+00  3.267E+00 
2.501E+00   5.068E+00  3.265E+00 
2.534E+00   5.101E+00  3.262E+00 
2.567E+00   5.134E+00  3.260E+00 
2.600E+00   5.167E+00  3.257E+00 
2.634E+00   5.200E+00  3.255E+00 
2.668E+00   5.234E+00  3.252E+00 
2.703E+00   5.268E+00  3.249E+00 
2.738E+00   5.302E+00  3.246E+00 
2.773E+00   5.336E+00  3.243E+00 
2.810E+00   5.371E+00  3.240E+00 
2.846E+00   5.406E+00  3.236E+00 
2.883E+00   5.441E+00  3.233E+00 
2.921E+00   5.476E+00  3.229E+00 
2.958E+00   5.511E+00  3.226E+00 
2.997E+00   5.547E+00  3.222E+00 
3.036E+00   5.583E+00  3.218E+00 
3.075E+00   5.619E+00  3.214E+00 
3.115E+00   5.656E+00  3.210E+00 
3.156E+00   5.692E+00  3.206E+00 
3.197E+00   5.729E+00  3.202E+00 
3.238E+00   5.766E+00  3.198E+00 
3.280E+00   5.804E+00  3.193E+00 
3.323E+00   5.841E+00  3.189E+00 
3.366E+00   5.879E+00  3.184E+00 
3.410E+00   5.917E+00  3.180E+00 
3.454E+00   5.955E+00  3.175E+00 
3.499E+00   5.994E+00  3.170E+00 
3.545E+00   6.033E+00  3.165E+00 
3.591E+00   6.072E+00  3.160E+00 
3.637E+00   6.111E+00  3.155E+00 
3.685E+00   6.151E+00  3.150E+00 
3.733E+00   6.191E+00  3.144E+00 
3.781E+00   6.231E+00  3.139E+00 
3.830E+00   6.271E+00  3.134E+00 
3.880E+00   6.312E+00  3.128E+00 
3.930E+00   6.353E+00  3.122E+00 
3.982E+00   6.394E+00  3.116E+00 
4.033E+00   6.435E+00  3.111E+00 
4.086E+00   6.477E+00  3.105E+00 
4.139E+00   6.519E+00  3.098E+00 
4.193E+00   6.561E+00  3.092E+00 
4.247E+00   6.604E+00  3.086E+00 
4.302E+00   6.646E+00  3.080E+00 
4.358E+00   6.689E+00  3.073E+00 
4.415E+00   6.733E+00  3.067E+00 
4.472E+00   6.776E+00  3.060E+00 
4.530E+00   6.820E+00  3.054E+00 
4.589E+00   6.864E+00  3.047E+00 
4.649E+00   6.909E+00  3.040E+00 
4.709E+00   6.954E+00  3.033E+00 
4.770E+00   6.999E+00  3.026E+00 
4.832E+00   7.044E+00  3.019E+00 
4.895E+00   7.090E+00  3.012E+00 
4.959E+00   7.136E+00  3.004E+00 
5.023E+00   7.182E+00  2.997E+00 
5.089E+00   7.228E+00  2.989E+00 
5.155E+00   7.275E+00  2.982E+00 
5.222E+00   7.322E+00  2.974E+00 
5.290E+00   7.370E+00  2.967E+00 
5.358E+00   7.417E+00  2.959E+00 
5.428E+00   7.465E+00  2.951E+00 
5.499E+00   7.514E+00  2.943E+00 
5.570E+00   7.562E+00  2.935E+00 
5.642E+00   7.611E+00  2.927E+00 
5.716E+00   7.661E+00  2.919E+00 
5.790E+00   7.710E+00  2.910E+00 
5.865E+00   7.760E+00  2.902E+00 
5.942E+00   7.811E+00  2.894E+00 
6.019E+00   7.861E+00  2.885E+00 
6.097E+00   7.912E+00  2.877E+00 
6.176E+00   7.963E+00  2.868E+00 
6.256E+00   8.015E+00  2.859E+00 
6.338E+00   8.067E+00  2.851E+00 
6.420E+00   8.119E+00  2.842E+00 
6.504E+00   8.172E+00  2.833E+00 
6.588E+00   8.225E+00  2.824E+00 
6.674E+00   8.278E+00  2.815E+00 
6.760E+00   8.331E+00  2.806E+00 
6.848E+00   8.385E+00  2.797E+00 
6.937E+00   8.440E+00  2.788E+00 
7.027E+00   8.494E+00  2.778E+00 
7.119E+00   8.549E+00  2.769E+00 
7.211E+00   8.605E+00  2.759E+00 
7.305E+00   8.661E+00  2.750E+00 
7.400E+00   8.717E+00  2.740E+00 
7.496E+00   8.773E+00  2.731E+00 
7.594E+00   8.830E+00  2.721E+00 
7.692E+00   8.887E+00  2.712E+00 
7.792E+00   8.945E+00  2.702E+00 
7.894E+00   9.003E+00  2.692E+00 
7.996E+00   9.061E+00  2.682E+00 
8.100E+00   9.129E+00  2.672E+00 
8.205E+00   9.199E+00  2.662E+00 
8.312E+00   9.269E+00  2.652E+00 
8.420E+00   9.340E+00  2.642E+00 
8.529E+00   9.412E+00  2.632E+00 
8.640E+00   9.484E+00  2.622E+00 
8.753E+00   9.557E+00  2.612E+00 
8.866E+00   9.630E+00  2.601E+00 
8.982E+00   9.704E+00  2.591E+00 
9.098E+00   9.779E+00  2.581E+00 
9.217E+00   9.854E+00  2.570E+00 
9.336E+00   9.930E+00  2.560E+00 
9.458E+00   1.001E+01  2.549E+00 
9.581E+00   1.008E+01  2.539E+00 
9.705E+00   1.016E+01  2.528E+00 
9.831E+00   1.024E+01  2.517E+00 
9.959E+00   1.032E+01  2.507E+00 
1.009E+01   1.040E+01  2.496E+00 
1.022E+01   1.048E+01  2.485E+00 
1.035E+01   1.056E+01  2.475E+00 
1.049E+01   1.064E+01  2.464E+00 
1.062E+01   1.073E+01  2.453E+00 
1.076E+01   1.081E+01  2.442E+00 
1.090E+01   1.089E+01  2.431E+00 
1.104E+01   1.098E+01  2.420E+00 
1.119E+01   1.106E+01  2.409E+00 
1.133E+01   1.115E+01  2.398E+00 
1.148E+01   1.124E+01  2.387E+00 
1.163E+01   1.133E+01  2.376E+00 
1.178E+01   1.141E+01  2.365E+00 
1.193E+01   1.150E+01  2.354E+00 
1.209E+01   1.159E+01  2.343E+00 
1.224E+01   1.168E+01  2.332E+00 
1.240E+01   1.178E+01  2.321E+00 
1.256E+01   1.187E+01  2.310E+00 
1.273E+01   1.196E+01  2.299E+00 
1.289E+01   1.206E+01  2.287E+00 
1.306E+01   1.215E+01  2.276E+00 
1.323E+01   1.225E+01  2.265E+00 
1.340E+01   1.234E+01  2.254E+00 
1.358E+01   1.244E+01  2.242E+00 
1.375E+01   1.254E+01  2.231E+00 
1.393E+01   1.264E+01  2.220E+00 
1.411E+01   1.274E+01  2.209E+00 
1.430E+01   1.284E+01  2.197E+00 
1.448E+01   1.294E+01  2.186E+00 
1.467E+01   1.305E+01  2.175E+00 
1.486E+01   1.315E+01  2.163E+00 
1.505E+01   1.325E+01  2.152E+00 
1.525E+01   1.336E+01  2.141E+00 
1.545E+01   1.347E+01  2.129E+00 
1.565E+01   1.357E+01  2.118E+00 
1.585E+01   1.368E+01  2.106E+00 
1.606E+01   1.379E+01  2.095E+00 
1.627E+01   1.390E+01  2.084E+00 
1.648E+01   1.401E+01  2.072E+00 
1.669E+01   1.412E+01  2.061E+00 
1.691E+01   1.424E+01  2.050E+00 
1.713E+01   1.435E+01  2.038E+00 
1.735E+01   1.447E+01  2.027E+00 
1.758E+01   1.458E+01  2.016E+00 
1.781E+01   1.470E+01  2.004E+00 
1.804E+01   1.482E+01  1.993E+00 
1.827E+01   1.494E+01  1.982E+00 
1.851E+01   1.506E+01  1.970E+00 
1.875E+01   1.518E+01  1.959E+00 
1.899E+01   1.530E+01  1.948E+00 
1.924E+01   1.543E+01  1.936E+00 
1.949E+01   1.555E+01  1.925E+00 
1.974E+01   1.568E+01  1.914E+00 
2.000E+01   1.580E+01  1.902E+00 
2.026E+01   1.593E+01  1.891E+00 
2.052E+01   1.606E+01  1.880E+00 
2.079E+01   1.619E+01  1.869E+00 
2.106E+01   1.632E+01  1.857E+00 
2.133E+01   1.646E+01  1.846E+00 
2.161E+01   1.659E+01  1.835E+00 
2.189E+01   1.673E+01  1.824E+00 
2.218E+01   1.686E+01  1.813E+00 
2.247E+01   1.700E+01  1.802E+00 
2.276E+01   1.714E+01  1.791E+00 
2.305E+01   1.728E+01  1.779E+00 
2.335E+01   1.742E+01  1.768E+00 
2.366E+01   1.756E+01  1.757E+00 
2.396E+01   1.771E+01  1.746E+00 
2.428E+01   1.785E+01  1.735E+00 
2.459E+01   1.800E+01  1.724E+00 
2.491E+01   1.815E+01  1.713E+00 
2.523E+01   1.830E+01  1.702E+00 
2.556E+01   1.845E+01  1.692E+00 
2.589E+01   1.860E+01  1.681E+00 
2.623E+01   1.875E+01  1.670E+00 
2.657E+01   1.891E+01  1.659E+00 
2.692E+01   1.906E+01  1.648E+00 
2.727E+01   1.922E+01  1.637E+00 
2.762E+01   1.938E+01  1.627E+00 
2.798E+01   1.954E+01  1.616E+00 
2.834E+01   1.970E+01  1.605E+00 
2.871E+01   1.986E+01  1.595E+00 
2.909E+01   2.003E+01  1.584E+00 
2.946E+01   2.019E+01  1.573E+00 
2.985E+01   2.036E+01  1.563E+00 
3.023E+01   2.053E+01  1.552E+00 
3.063E+01   2.070E+01  1.542E+00 
3.103E+01   2.087E+01  1.531E+00 
3.143E+01   2.104E+01  1.521E+00 
3.184E+01   2.122E+01  1.511E+00 
3.225E+01   2.139E+01  1.500E+00 
3.267E+01   2.157E+01  1.490E+00 
3.309E+01   2.175E+01  1.480E+00 
3.352E+01   2.193E+01  1.469E+00 
3.396E+01   2.211E+01  1.459E+00 
3.440E+01   2.230E+01  1.449E+00 
3.485E+01   2.248E+01  1.439E+00 
3.530E+01   2.267E+01  1.429E+00 
3.576E+01   2.286E+01  1.419E+00 
3.623E+01   2.305E+01  1.409E+00 
3.670E+01   2.324E+01  1.399E+00 
3.717E+01   2.343E+01  1.389E+00 
3.766E+01   2.363E+01  1.379E+00 
3.815E+01   2.382E+01  1.369E+00 
3.864E+01   2.402E+01  1.359E+00 
3.914E+01   2.422E+01  1.349E+00 
3.965E+01   2.442E+01  1.339E+00 
4.017E+01   2.463E+01  1.330E+00 
4.069E+01   2.483E+01  1.320E+00 
4.122E+01   2.504E+01  1.310E+00 
4.175E+01   2.524E+01  1.301E+00 
4.230E+01   2.545E+01  1.291E+00 
4.285E+01   2.567E+01  1.282E+00 
4.340E+01   2.588E+01  1.272E+00 
4.397E+01   2.609E+01  1.263E+00 
4.454E+01   2.631E+01  1.254E+00 
4.512E+01   2.653E+01  1.244E+00 
4.570E+01   2.675E+01  1.235E+00 
4.630E+01   2.697E+01  1.226E+00 
4.690E+01   2.719E+01  1.216E+00 
4.751E+01   2.742E+01  1.207E+00 
4.813E+01   2.765E+01  1.198E+00 
4.875E+01   2.787E+01  1.189E+00 
4.939E+01   2.810E+01  1.180E+00 
5.003E+01   2.834E+01  1.171E+00 
5.068E+01   2.857E+01  1.162E+00 
5.134E+01   2.880E+01  1.153E+00 
5.200E+01   2.904E+01  1.144E+00 
5.268E+01   2.928E+01  1.136E+00 
5.336E+01   2.952E+01  1.127E+00 
5.406E+01   2.976E+01  1.118E+00 
5.476E+01   3.000E+01  1.109E+00 
5.547E+01   3.025E+01  1.101E+00 
5.619E+01   3.049E+01  1.092E+00 
5.692E+01   3.074E+01  1.084E+00 
5.766E+01   3.099E+01  1.075E+00 
5.841E+01   3.124E+01  1.067E+00 
5.917E+01   3.150E+01  1.058E+00 
5.994E+01   3.175E+01  1.050E+00 
6.072E+01   3.201E+01  1.042E+00 
6.151E+01   3.226E+01  1.033E+00 
6.231E+01   3.252E+01  1.025E+00 
6.312E+01   3.278E+01  1.017E+00 
6.394E+01   3.304E+01  1.009E+00 
6.477E+01   3.330E+01  1.001E+00 
6.561E+01   3.357E+01  9.928E-01 
6.646E+01   3.383E+01  9.848E-01 
6.733E+01   3.410E+01  9.769E-01 
6.820E+01   3.437E+01  9.690E-01 
6.909E+01   3.464E+01  9.612E-01 
6.999E+01   3.491E+01  9.534E-01 
7.090E+01   3.518E+01  9.456E-01 
7.182E+01   3.545E+01  9.379E-01 
7.275E+01   3.572E+01  9.302E-01 
7.370E+01   3.600E+01  9.226E-01 
7.465E+01   3.627E+01  9.151E-01 
7.562E+01   3.655E+01  9.075E-01 
7.661E+01   3.683E+01  9.001E-01 
7.760E+01   3.711E+01  8.926E-01 
7.861E+01   3.738E+01  8.853E-01 
7.963E+01   3.766E+01  8.779E-01 
8.067E+01   3.794E+01  8.706E-01 
8.172E+01   3.822E+01  8.634E-01 
8.278E+01   3.851E+01  8.562E-01 
8.385E+01   3.879E+01  8.490E-01 
8.494E+01   3.907E+01  8.419E-01 
8.605E+01   3.935E+01  8.349E-01 
8.717E+01   3.964E+01  8.278E-01 
8.830E+01   3.992E+01  8.209E-01 
8.945E+01   4.020E+01  8.140E-01 
9.061E+01   4.049E+01  8.071E-01 
9.179E+01   4.077E+01  8.002E-01 
9.298E+01   4.106E+01  7.934E-01 
9.419E+01   4.134E+01  7.867E-01 
9.541E+01   4.162E+01  7.800E-01 
9.665E+01   4.191E+01  7.734E-01 
9.791E+01   4.219E+01  7.667E-01 
9.918E+01   4.248E+01  7.602E-01 
1.005E+02   4.276E+01  7.537E-01 
1.018E+02   4.304E+01  7.472E-01 
1.031E+02   4.333E+01  7.407E-01 
1.044E+02   4.361E+01  7.344E-01 
1.058E+02   4.389E+01  7.280E-01 
1.072E+02   4.418E+01  7.217E-01 
1.086E+02   4.446E+01  7.155E-01 
1.100E+02   4.474E+01  7.092E-01 
1.114E+02   4.502E+01  7.031E-01 
1.129E+02   4.530E+01  6.969E-01 
1.143E+02   4.558E+01  6.909E-01 
1.158E+02   4.586E+01  6.848E-01 
1.173E+02   4.614E+01  6.788E-01 
1.188E+02   4.642E+01  6.729E-01 
1.204E+02   4.669E+01  6.670E-01 
1.219E+02   4.697E+01  6.611E-01 
1.235E+02   4.725E+01  6.553E-01 
1.251E+02   4.752E+01  6.495E-01 
1.268E+02   4.780E+01  6.437E-01 
1.284E+02   4.807E+01  6.380E-01 
1.301E+02   4.835E+01  6.324E-01 
1.318E+02   4.862E+01  6.268E-01 
1.335E+02   4.890E+01  6.212E-01 
1.352E+02   4.917E+01  6.157E-01 
1.370E+02   4.944E+01  6.102E-01 
1.388E+02   4.972E+01  6.047E-01 
1.406E+02   4.999E+01  5.993E-01 
1.424E+02   5.026E+01  5.939E-01 
1.442E+02   5.053E+01  5.886E-01 
1.461E+02   5.080E+01  5.833E-01 
1.480E+02   5.107E+01  5.780E-01 
1.499E+02   5.135E+01  5.728E-01 
1.519E+02   5.162E+01  5.677E-01 
1.539E+02   5.189E+01  5.625E-01 
1.559E+02   5.216E+01  5.574E-01 
1.579E+02   5.243E+01  5.524E-01 
1.599E+02   5.270E+01  5.474E-01 
1.620E+02   5.297E+01  5.424E-01 
1.641E+02   5.325E+01  5.374E-01 
1.662E+02   5.352E+01  5.325E-01 
1.684E+02   5.379E+01  5.277E-01 
1.706E+02   5.407E+01  5.229E-01 
1.728E+02   5.434E+01  5.181E-01 
1.751E+02   5.461E+01  5.133E-01 
1.773E+02   5.489E+01  4.953E-01 
1.796E+02   5.517E+01  4.908E-01 
1.820E+02   5.544E+01  4.863E-01 
1.843E+02   5.572E+01  4.819E-01 
1.867E+02   5.600E+01  4.774E-01 
1.892E+02   5.628E+01  4.731E-01 
1.916E+02   5.656E+01  4.687E-01 
1.941E+02   5.684E+01  4.644E-01 
1.966E+02   5.712E+01  4.602E-01 
1.992E+02   5.741E+01  4.559E-01 
2.018E+02   5.769E+01  4.517E-01 
2.044E+02   5.798E+01  4.476E-01 
2.071E+02   5.827E+01  4.434E-01 
2.097E+02   5.855E+01  4.393E-01 
2.125E+02   5.884E+01  4.353E-01 
2.152E+02   5.913E+01  4.312E-01 
2.180E+02   5.943E+01  4.272E-01 
2.209E+02   5.972E+01  4.232E-01 
2.237E+02   6.001E+01  4.193E-01 
2.266E+02   6.031E+01  4.154E-01 
2.296E+02   6.060E+01  4.115E-01 
2.326E+02   6.090E+01  4.077E-01 
2.356E+02   6.120E+01  4.038E-01 
2.387E+02   6.150E+01  4.001E-01 
2.418E+02   6.180E+01  3.963E-01 
2.449E+02   6.210E+01  3.926E-01 
2.481E+02   6.240E+01  3.889E-01 
2.513E+02   6.271E+01  3.852E-01 
2.546E+02   6.301E+01  3.816E-01 
2.579E+02   6.332E+01  3.780E-01 
2.612E+02   6.362E+01  3.744E-01 
2.646E+02   6.393E+01  3.708E-01 
2.681E+02   6.424E+01  3.673E-01 
2.716E+02   6.455E+01  3.638E-01 
2.751E+02   6.486E+01  3.604E-01 
2.787E+02   6.516E+01  3.570E-01 
2.823E+02   6.547E+01  3.536E-01 
2.859E+02   6.578E+01  3.502E-01 
2.897E+02   6.609E+01  3.468E-01 
2.934E+02   6.641E+01  3.435E-01 
2.972E+02   6.672E+01  3.402E-01 
3.011E+02   6.703E+01  3.370E-01 
3.050E+02   6.734E+01  3.337E-01 
3.090E+02   6.765E+01  3.305E-01 
3.130E+02   6.796E+01  3.274E-01 
3.171E+02   6.827E+01  3.242E-01 
3.212E+02   6.858E+01  3.211E-01 
3.254E+02   6.888E+01  3.180E-01 
3.296E+02   6.919E+01  3.149E-01 
3.339E+02   6.950E+01  3.119E-01 
3.382E+02   6.981E+01  3.088E-01 
3.426E+02   7.011E+01  3.059E-01 
3.471E+02   7.042E+01  3.029E-01 
3.516E+02   7.072E+01  3.000E-01 
3.561E+02   7.102E+01  2.970E-01 
3.608E+02   7.132E+01  2.941E-01 
3.655E+02   7.162E+01  2.913E-01 
3.702E+02   7.192E+01  2.884E-01 
3.750E+02   7.221E+01  2.856E-01 
3.799E+02   7.251E+01  2.828E-01 
3.848E+02   7.280E+01  2.801E-01 
3.898E+02   7.309E+01  2.773E-01 
3.949E+02   7.338E+01  2.746E-01 
4.000E+02   7.366E+01  2.719E-01 
4.052E+02   7.395E+01  2.693E-01 
4.105E+02   7.423E+01  2.666E-01 
4.158E+02   7.451E+01  2.640E-01 
4.212E+02   7.478E+01  2.614E-01 
4.267E+02   7.505E+01  2.588E-01 
4.323E+02   7.532E+01  2.563E-01 
4.379E+02   7.559E+01  2.537E-01 
4.436E+02   7.585E+01  2.512E-01 
4.493E+02   7.611E+01  2.488E-01 
4.552E+02   7.637E+01  2.463E-01 
4.611E+02   7.662E+01  2.439E-01 
4.671E+02   7.687E+01  2.414E-01 
4.731E+02   7.712E+01  2.390E-01 
4.793E+02   7.736E+01  2.367E-01 
4.855E+02   7.760E+01  2.343E-01 
4.918E+02   7.784E+01  2.320E-01 
4.982E+02   7.807E+01  2.297E-01 
5.047E+02   7.829E+01  2.274E-01 
5.113E+02   7.851E+01  2.251E-01 
5.179E+02   7.873E+01  2.229E-01 
5.246E+02   7.894E+01  2.207E-01 
5.315E+02   7.915E+01  2.185E-01 
5.384E+02   7.936E+01  2.163E-01 
5.454E+02   7.956E+01  2.141E-01 
5.524E+02   7.975E+01  2.120E-01 
5.596E+02   7.994E+01  2.098E-01 
5.669E+02   8.012E+01  2.077E-01 
5.743E+02   8.030E+01  2.056E-01 
5.817E+02   8.048E+01  2.036E-01 
5.893E+02   8.064E+01  2.015E-01 
5.969E+02   8.081E+01  1.995E-01 
6.047E+02   8.096E+01  1.975E-01 
6.126E+02   8.112E+01  1.955E-01 
6.205E+02   8.126E+01  1.935E-01 
6.286E+02   8.140E+01  1.916E-01 
6.368E+02   8.154E+01  1.896E-01 
6.450E+02   8.167E+01  1.877E-01 
6.534E+02   8.179E+01  1.858E-01 
6.619E+02   8.191E+01  1.839E-01 
6.705E+02   8.202E+01  1.821E-01 
6.792E+02   8.212E+01  1.802E-01 
6.881E+02   8.222E+01  1.784E-01 
6.970E+02   8.232E+01  1.766E-01 
7.061E+02   8.240E+01  1.748E-01 
7.152E+02   8.248E+01  1.730E-01 
7.245E+02   8.256E+01  1.713E-01 
7.339E+02   8.263E+01  1.695E-01 
7.435E+02   8.269E+01  1.678E-01 
7.531E+02   8.274E+01  1.661E-01 
7.629E+02   8.279E+01  1.644E-01 
7.728E+02   8.283E+01  1.627E-01 
7.829E+02   8.287E+01  1.610E-01 
7.931E+02   8.290E+01  1.594E-01 
8.034E+02   8.292E+01  1.578E-01 
8.138E+02   8.294E+01  1.561E-01 
8.244E+02   8.295E+01  1.545E-01 
8.351E+02   8.295E+01  1.530E-01 
8.460E+02   8.295E+01  1.514E-01 
8.570E+02   8.294E+01  1.498E-01 
8.681E+02   8.292E+01  1.483E-01 
8.794E+02   8.290E+01  1.468E-01 
8.908E+02   8.287E+01  1.453E-01 
9.024E+02   8.283E+01  1.438E-01 
9.141E+02   8.279E+01  1.423E-01 
9.260E+02   8.274E+01  1.408E-01 
9.380E+02   8.269E+01  1.394E-01 
9.502E+02   8.262E+01  1.379E-01 
9.626E+02   8.256E+01  1.365E-01 
9.751E+02   8.248E+01  1.351E-01 
9.877E+02   8.240E+01  1.337E-01 
1.001E+03   8.231E+01  1.323E-01 
1.014E+03   8.222E+01  1.309E-01 
1.027E+03   8.212E+01  1.296E-01 
1.040E+03   8.201E+01  1.283E-01 
1.054E+03   8.190E+01  1.269E-01 
1.067E+03   8.178E+01  1.256E-01 
1.081E+03   8.165E+01  1.243E-01 
1.095E+03   8.152E+01  1.230E-01 
1.109E+03   8.138E+01  1.217E-01 
1.124E+03   8.124E+01  1.205E-01 
1.138E+03   8.109E+01  1.192E-01 
1.153E+03   8.093E+01  1.180E-01 
1.168E+03   8.077E+01  1.167E-01 
1.183E+03   8.060E+01  1.155E-01 
1.199E+03   8.043E+01  1.143E-01 
1.214E+03   8.025E+01  1.131E-01 
1.230E+03   8.007E+01  1.119E-01 
1.246E+03   7.988E+01  1.108E-01 
1.262E+03   7.968E+01  1.096E-01 
1.279E+03   7.948E+01  1.085E-01 
1.295E+03   7.928E+01  1.073E-01 
1.312E+03   7.907E+01  1.062E-01 
1.329E+03   7.885E+01  1.051E-01 
1.347E+03   7.863E+01  1.040E-01 
1.364E+03   7.840E+01  1.029E-01 
1.382E+03   7.817E+01  1.018E-01 
1.400E+03   7.793E+01  1.008E-01 
1.418E+03   7.769E+01  9.970E-02 
1.436E+03   7.744E+01  9.866E-02 
1.455E+03   7.719E+01  9.762E-02 
1.474E+03   7.694E+01  9.659E-02 
1.493E+03   7.668E+01  9.558E-02 
1.513E+03   7.642E+01  9.457E-02 
1.532E+03   7.615E+01  9.357E-02 
1.552E+03   7.587E+01  9.259E-02 
1.572E+03   7.560E+01  9.161E-02 
1.593E+03   7.532E+01  9.064E-02 
1.613E+03   7.503E+01  8.969E-02 
1.634E+03   7.474E+01  8.874E-02 
1.656E+03   7.445E+01  8.780E-02 
1.677E+03   7.416E+01  8.687E-02 
1.699E+03   7.386E+01  8.596E-02 
1.721E+03   7.355E+01  8.505E-02 
1.743E+03   7.325E+01  8.415E-02 
1.766E+03   7.294E+01  8.325E-02 
1.789E+03   7.262E+01  8.237E-02 
1.812E+03   7.231E+01  8.150E-02 
1.836E+03   7.199E+01  8.063E-02 
1.860E+03   7.166E+01  7.978E-02 
