Ion = Hydrogen    . Mass = 1.0079
Tgt =  B (Solid). Density = 2.3502 g/cm3
Stopping Units =  eV/(1E15 atoms/cm2)
Energy(keV)  S(Elec)    S(Nuc)
1.000E+00   2.586E+00  3.967E-01 
1.012E+00   2.601E+00  3.948E-01 
1.023E+00   2.616E+00  3.929E-01 
1.035E+00   2.631E+00  3.911E-01 
1.047E+00   2.646E+00  3.892E-01 
1.059E+00   2.662E+00  3.873E-01 
1.072E+00   2.677E+00  3.854E-01 
1.084E+00   2.692E+00  3.836E-01 
1.097E+00   2.708E+00  3.817E-01 
1.109E+00   2.724E+00  3.798E-01 
1.122E+00   2.739E+00  3.780E-01 
1.135E+00   2.755E+00  3.761E-01 
1.148E+00   2.771E+00  3.742E-01 
1.162E+00   2.787E+00  3.723E-01 
1.175E+00   2.803E+00  3.705E-01 
1.189E+00   2.820E+00  3.686E-01 
1.203E+00   2.836E+00  3.667E-01 
1.217E+00   2.852E+00  3.649E-01 
1.231E+00   2.869E+00  3.630E-01 
1.245E+00   2.885E+00  3.611E-01 
1.259E+00   2.902E+00  3.593E-01 
1.274E+00   2.919E+00  3.574E-01 
1.289E+00   2.936E+00  3.556E-01 
1.304E+00   2.953E+00  3.537E-01 
1.319E+00   2.970E+00  3.518E-01 
1.334E+00   2.987E+00  3.500E-01 
1.350E+00   3.004E+00  3.481E-01 
1.365E+00   3.022E+00  3.463E-01 
1.381E+00   3.039E+00  3.444E-01 
1.397E+00   3.057E+00  3.426E-01 
1.413E+00   3.074E+00  3.407E-01 
1.430E+00   3.092E+00  3.389E-01 
1.446E+00   3.110E+00  3.370E-01 
1.463E+00   3.128E+00  3.352E-01 
1.480E+00   3.146E+00  3.334E-01 
1.497E+00   3.164E+00  3.315E-01 
1.515E+00   3.182E+00  3.297E-01 
1.532E+00   3.201E+00  3.279E-01 
1.550E+00   3.219E+00  3.261E-01 
1.568E+00   3.238E+00  3.242E-01 
1.586E+00   3.257E+00  3.224E-01 
1.605E+00   3.276E+00  3.206E-01 
1.623E+00   3.294E+00  3.188E-01 
1.642E+00   3.314E+00  3.170E-01 
1.661E+00   3.333E+00  3.152E-01 
1.680E+00   3.352E+00  3.134E-01 
1.700E+00   3.371E+00  3.116E-01 
1.719E+00   3.391E+00  3.098E-01 
1.739E+00   3.410E+00  3.080E-01 
1.760E+00   3.430E+00  3.062E-01 
1.780E+00   3.450E+00  3.044E-01 
1.801E+00   3.470E+00  3.027E-01 
1.822E+00   3.490E+00  3.009E-01 
1.843E+00   3.510E+00  2.991E-01 
1.864E+00   3.531E+00  2.973E-01 
1.886E+00   3.551E+00  2.956E-01 
1.908E+00   3.571E+00  2.938E-01 
1.930E+00   3.592E+00  2.921E-01 
1.952E+00   3.613E+00  2.903E-01 
1.975E+00   3.634E+00  2.886E-01 
1.998E+00   3.655E+00  2.869E-01 
2.021E+00   3.675E+00  2.851E-01 
2.044E+00   3.694E+00  2.834E-01 
2.068E+00   3.712E+00  2.817E-01 
2.092E+00   3.731E+00  2.800E-01 
2.116E+00   3.750E+00  2.782E-01 
2.141E+00   3.769E+00  2.765E-01 
2.166E+00   3.788E+00  2.748E-01 
2.191E+00   3.808E+00  2.731E-01 
2.216E+00   3.827E+00  2.714E-01 
2.242E+00   3.847E+00  2.698E-01 
2.268E+00   3.867E+00  2.681E-01 
2.294E+00   3.887E+00  2.664E-01 
2.321E+00   3.907E+00  2.647E-01 
2.348E+00   3.927E+00  2.631E-01 
2.375E+00   3.947E+00  2.614E-01 
2.402E+00   3.968E+00  2.598E-01 
2.430E+00   3.989E+00  2.581E-01 
2.458E+00   4.009E+00  2.565E-01 
2.487E+00   4.031E+00  2.548E-01 
2.516E+00   4.052E+00  2.532E-01 
2.545E+00   4.073E+00  2.516E-01 
2.574E+00   4.095E+00  2.500E-01 
2.604E+00   4.116E+00  2.483E-01 
2.635E+00   4.138E+00  2.467E-01 
2.665E+00   4.160E+00  2.451E-01 
2.696E+00   4.182E+00  2.435E-01 
2.727E+00   4.205E+00  2.419E-01 
2.759E+00   4.227E+00  2.404E-01 
2.791E+00   4.250E+00  2.388E-01 
2.823E+00   4.272E+00  2.372E-01 
2.856E+00   4.295E+00  2.357E-01 
2.889E+00   4.319E+00  2.341E-01 
2.923E+00   4.342E+00  2.325E-01 
2.957E+00   4.365E+00  2.310E-01 
2.991E+00   4.389E+00  2.295E-01 
3.026E+00   4.413E+00  2.279E-01 
3.061E+00   4.437E+00  2.264E-01 
3.096E+00   4.461E+00  2.249E-01 
3.132E+00   4.485E+00  2.234E-01 
3.168E+00   4.509E+00  2.219E-01 
3.205E+00   4.534E+00  2.204E-01 
3.242E+00   4.559E+00  2.189E-01 
3.280E+00   4.584E+00  2.174E-01 
3.318E+00   4.609E+00  2.159E-01 
3.356E+00   4.634E+00  2.144E-01 
3.395E+00   4.659E+00  2.130E-01 
3.435E+00   4.685E+00  2.115E-01 
3.475E+00   4.711E+00  2.100E-01 
3.515E+00   4.737E+00  2.086E-01 
3.556E+00   4.763E+00  2.071E-01 
3.597E+00   4.789E+00  2.057E-01 
3.639E+00   4.815E+00  2.043E-01 
3.681E+00   4.842E+00  2.029E-01 
3.724E+00   4.868E+00  2.015E-01 
3.767E+00   4.895E+00  2.000E-01 
3.810E+00   4.922E+00  1.986E-01 
3.855E+00   4.949E+00  1.972E-01 
3.899E+00   4.977E+00  1.959E-01 
3.945E+00   5.004E+00  1.945E-01 
3.990E+00   5.032E+00  1.931E-01 
4.037E+00   5.059E+00  1.917E-01 
4.083E+00   5.087E+00  1.904E-01 
4.131E+00   5.115E+00  1.890E-01 
4.179E+00   5.144E+00  1.877E-01 
4.227E+00   5.172E+00  1.863E-01 
4.276E+00   5.200E+00  1.850E-01 
4.326E+00   5.229E+00  1.837E-01 
4.376E+00   5.258E+00  1.824E-01 
4.427E+00   5.287E+00  1.810E-01 
4.478E+00   5.316E+00  1.797E-01 
4.530E+00   5.345E+00  1.784E-01 
4.583E+00   5.374E+00  1.772E-01 
4.636E+00   5.403E+00  1.759E-01 
4.690E+00   5.433E+00  1.746E-01 
4.744E+00   5.463E+00  1.733E-01 
4.799E+00   5.492E+00  1.721E-01 
4.855E+00   5.522E+00  1.708E-01 
4.911E+00   5.552E+00  1.695E-01 
4.968E+00   5.583E+00  1.683E-01 
5.026E+00   5.613E+00  1.671E-01 
5.084E+00   5.643E+00  1.658E-01 
5.143E+00   5.674E+00  1.646E-01 
5.202E+00   5.704E+00  1.634E-01 
5.263E+00   5.735E+00  1.622E-01 
5.324E+00   5.766E+00  1.610E-01 
5.386E+00   5.797E+00  1.598E-01 
5.448E+00   5.828E+00  1.586E-01 
5.511E+00   5.859E+00  1.574E-01 
5.575E+00   5.890E+00  1.562E-01 
5.640E+00   5.922E+00  1.551E-01 
5.705E+00   5.953E+00  1.539E-01 
5.771E+00   5.985E+00  1.527E-01 
5.838E+00   6.016E+00  1.516E-01 
5.906E+00   6.048E+00  1.504E-01 
5.975E+00   6.080E+00  1.493E-01 
6.044E+00   6.112E+00  1.482E-01 
6.114E+00   6.144E+00  1.471E-01 
6.185E+00   6.176E+00  1.459E-01 
6.257E+00   6.209E+00  1.448E-01 
6.329E+00   6.241E+00  1.437E-01 
6.403E+00   6.273E+00  1.426E-01 
6.477E+00   6.306E+00  1.415E-01 
6.552E+00   6.338E+00  1.405E-01 
6.628E+00   6.371E+00  1.394E-01 
6.705E+00   6.404E+00  1.383E-01 
6.783E+00   6.437E+00  1.372E-01 
6.861E+00   6.470E+00  1.362E-01 
6.941E+00   6.503E+00  1.351E-01 
7.021E+00   6.536E+00  1.341E-01 
7.103E+00   6.570E+00  1.331E-01 
7.185E+00   6.603E+00  1.320E-01 
7.269E+00   6.637E+00  1.310E-01 
7.353E+00   6.670E+00  1.300E-01 
7.438E+00   6.704E+00  1.290E-01 
7.524E+00   6.738E+00  1.280E-01 
7.612E+00   6.772E+00  1.270E-01 
7.700E+00   6.806E+00  1.260E-01 
7.789E+00   6.841E+00  1.250E-01 
7.880E+00   6.875E+00  1.240E-01 
7.971E+00   6.910E+00  1.230E-01 
8.064E+00   6.944E+00  1.221E-01 
8.157E+00   6.979E+00  1.211E-01 
8.252E+00   7.014E+00  1.201E-01 
8.347E+00   7.049E+00  1.192E-01 
8.444E+00   7.085E+00  1.183E-01 
8.542E+00   7.120E+00  1.173E-01 
8.641E+00   7.156E+00  1.164E-01 
8.741E+00   7.192E+00  1.155E-01 
8.843E+00   7.228E+00  1.145E-01 
8.945E+00   7.264E+00  1.136E-01 
9.049E+00   7.300E+00  1.127E-01 
9.154E+00   7.337E+00  1.118E-01 
9.260E+00   7.373E+00  1.109E-01 
9.368E+00   7.410E+00  1.100E-01 
9.476E+00   7.447E+00  1.092E-01 
9.586E+00   7.485E+00  1.083E-01 
9.698E+00   7.522E+00  1.074E-01 
9.810E+00   7.560E+00  1.065E-01 
9.924E+00   7.598E+00  1.057E-01 
1.004E+01   7.636E+00  1.048E-01 
1.016E+01   7.674E+00  1.040E-01 
1.027E+01   7.713E+00  1.031E-01 
1.039E+01   7.752E+00  1.023E-01 
1.051E+01   7.791E+00  1.015E-01 
1.063E+01   7.830E+00  1.007E-01 
1.076E+01   7.870E+00  9.983E-02 
1.088E+01   7.910E+00  9.902E-02 
1.101E+01   7.950E+00  9.821E-02 
1.114E+01   7.990E+00  9.741E-02 
1.127E+01   8.031E+00  9.661E-02 
1.140E+01   8.072E+00  9.582E-02 
1.153E+01   8.113E+00  9.504E-02 
1.166E+01   8.154E+00  9.426E-02 
1.180E+01   8.196E+00  9.348E-02 
1.193E+01   8.238E+00  9.271E-02 
1.207E+01   8.280E+00  9.195E-02 
1.221E+01   8.322E+00  9.119E-02 
1.235E+01   8.365E+00  8.348E-02 
1.250E+01   8.408E+00  8.281E-02 
1.264E+01   8.451E+00  8.213E-02 
1.279E+01   8.495E+00  8.146E-02 
1.294E+01   8.539E+00  8.080E-02 
1.309E+01   8.583E+00  8.014E-02 
1.324E+01   8.627E+00  7.949E-02 
1.339E+01   8.672E+00  7.884E-02 
1.355E+01   8.717E+00  7.819E-02 
1.371E+01   8.762E+00  7.755E-02 
1.387E+01   8.807E+00  7.691E-02 
1.403E+01   8.853E+00  7.628E-02 
1.419E+01   8.899E+00  7.565E-02 
1.435E+01   8.945E+00  7.503E-02 
1.452E+01   8.991E+00  7.441E-02 
1.469E+01   9.038E+00  7.379E-02 
1.486E+01   9.085E+00  7.318E-02 
1.503E+01   9.132E+00  7.257E-02 
1.521E+01   9.179E+00  7.197E-02 
1.538E+01   9.227E+00  7.137E-02 
1.556E+01   9.275E+00  7.078E-02 
1.574E+01   9.323E+00  7.019E-02 
1.592E+01   9.371E+00  6.961E-02 
1.611E+01   9.420E+00  6.902E-02 
1.629E+01   9.468E+00  6.845E-02 
1.648E+01   9.517E+00  6.787E-02 
1.667E+01   9.566E+00  6.731E-02 
1.687E+01   9.616E+00  6.674E-02 
1.706E+01   9.665E+00  6.618E-02 
1.726E+01   9.715E+00  6.563E-02 
1.746E+01   9.764E+00  6.507E-02 
1.766E+01   9.814E+00  6.452E-02 
1.787E+01   9.864E+00  6.398E-02 
1.808E+01   9.915E+00  6.344E-02 
1.829E+01   9.965E+00  6.290E-02 
1.850E+01   1.002E+01  6.237E-02 
1.871E+01   1.007E+01  6.184E-02 
1.893E+01   1.012E+01  6.132E-02 
1.915E+01   1.017E+01  6.080E-02 
1.937E+01   1.022E+01  6.028E-02 
1.960E+01   1.027E+01  5.977E-02 
1.982E+01   1.032E+01  5.926E-02 
2.005E+01   1.037E+01  5.875E-02 
2.029E+01   1.042E+01  5.825E-02 
2.052E+01   1.047E+01  5.776E-02 
2.076E+01   1.052E+01  5.726E-02 
2.100E+01   1.058E+01  5.677E-02 
2.124E+01   1.063E+01  5.629E-02 
2.149E+01   1.068E+01  5.580E-02 
2.174E+01   1.073E+01  5.532E-02 
2.199E+01   1.078E+01  5.485E-02 
2.225E+01   1.083E+01  5.438E-02 
2.250E+01   1.088E+01  5.391E-02 
2.277E+01   1.093E+01  5.344E-02 
2.303E+01   1.098E+01  5.298E-02 
2.330E+01   1.104E+01  5.253E-02 
2.357E+01   1.109E+01  5.207E-02 
2.384E+01   1.114E+01  5.162E-02 
2.412E+01   1.119E+01  5.117E-02 
2.440E+01   1.124E+01  5.073E-02 
2.468E+01   1.129E+01  5.029E-02 
2.497E+01   1.134E+01  4.985E-02 
2.526E+01   1.139E+01  4.942E-02 
2.555E+01   1.144E+01  4.899E-02 
2.584E+01   1.149E+01  4.856E-02 
2.614E+01   1.154E+01  4.814E-02 
2.645E+01   1.158E+01  4.772E-02 
2.675E+01   1.163E+01  4.731E-02 
2.707E+01   1.168E+01  4.689E-02 
2.738E+01   1.173E+01  4.648E-02 
2.770E+01   1.178E+01  4.608E-02 
2.802E+01   1.183E+01  4.567E-02 
2.834E+01   1.187E+01  4.527E-02 
2.867E+01   1.192E+01  4.487E-02 
2.900E+01   1.197E+01  4.448E-02 
2.934E+01   1.201E+01  4.409E-02 
2.968E+01   1.206E+01  4.370E-02 
3.003E+01   1.210E+01  4.332E-02 
3.037E+01   1.215E+01  4.294E-02 
3.073E+01   1.219E+01  4.256E-02 
3.108E+01   1.224E+01  4.218E-02 
3.144E+01   1.228E+01  4.181E-02 
3.181E+01   1.233E+01  4.144E-02 
3.218E+01   1.237E+01  4.107E-02 
3.255E+01   1.241E+01  4.071E-02 
3.293E+01   1.245E+01  4.035E-02 
3.331E+01   1.249E+01  3.999E-02 
3.370E+01   1.253E+01  3.964E-02 
3.409E+01   1.258E+01  3.928E-02 
3.448E+01   1.261E+01  3.894E-02 
3.488E+01   1.265E+01  3.859E-02 
3.529E+01   1.269E+01  3.825E-02 
3.570E+01   1.273E+01  3.791E-02 
3.611E+01   1.277E+01  3.757E-02 
3.653E+01   1.281E+01  3.723E-02 
3.695E+01   1.284E+01  3.690E-02 
3.738E+01   1.288E+01  3.657E-02 
3.781E+01   1.291E+01  3.624E-02 
3.825E+01   1.295E+01  3.592E-02 
3.870E+01   1.298E+01  3.560E-02 
3.915E+01   1.301E+01  3.528E-02 
3.960E+01   1.305E+01  3.496E-02 
4.006E+01   1.308E+01  3.465E-02 
4.052E+01   1.311E+01  3.434E-02 
4.099E+01   1.314E+01  3.403E-02 
4.147E+01   1.317E+01  3.372E-02 
4.195E+01   1.320E+01  3.342E-02 
4.244E+01   1.322E+01  3.312E-02 
4.293E+01   1.325E+01  3.282E-02 
4.343E+01   1.328E+01  3.253E-02 
4.393E+01   1.330E+01  3.223E-02 
4.444E+01   1.333E+01  3.194E-02 
4.496E+01   1.335E+01  3.165E-02 
4.548E+01   1.338E+01  3.137E-02 
4.600E+01   1.340E+01  3.108E-02 
4.654E+01   1.342E+01  3.080E-02 
4.708E+01   1.344E+01  3.052E-02 
4.762E+01   1.346E+01  3.025E-02 
4.818E+01   1.348E+01  2.997E-02 
4.873E+01   1.350E+01  2.970E-02 
4.930E+01   1.351E+01  2.943E-02 
4.987E+01   1.353E+01  2.916E-02 
5.045E+01   1.355E+01  2.890E-02 
5.104E+01   1.356E+01  2.864E-02 
5.163E+01   1.357E+01  2.837E-02 
5.223E+01   1.359E+01  2.812E-02 
5.283E+01   1.360E+01  2.786E-02 
5.344E+01   1.361E+01  2.761E-02 
5.406E+01   1.362E+01  2.735E-02 
5.469E+01   1.363E+01  2.710E-02 
5.533E+01   1.364E+01  2.686E-02 
5.597E+01   1.364E+01  2.661E-02 
5.662E+01   1.365E+01  2.637E-02 
5.727E+01   1.366E+01  2.613E-02 
5.794E+01   1.366E+01  2.589E-02 
5.861E+01   1.366E+01  2.565E-02 
5.929E+01   1.367E+01  2.542E-02 
5.998E+01   1.367E+01  2.518E-02 
6.067E+01   1.367E+01  2.495E-02 
6.138E+01   1.367E+01  2.472E-02 
6.209E+01   1.367E+01  2.449E-02 
6.281E+01   1.367E+01  2.427E-02 
6.354E+01   1.366E+01  2.405E-02 
6.427E+01   1.366E+01  2.382E-02 
6.502E+01   1.366E+01  2.361E-02 
6.577E+01   1.365E+01  2.339E-02 
6.654E+01   1.364E+01  2.317E-02 
6.731E+01   1.364E+01  2.296E-02 
6.809E+01   1.363E+01  2.275E-02 
6.888E+01   1.362E+01  2.254E-02 
6.968E+01   1.361E+01  2.233E-02 
7.049E+01   1.360E+01  2.212E-02 
7.130E+01   1.359E+01  2.192E-02 
7.213E+01   1.357E+01  2.171E-02 
7.297E+01   1.356E+01  2.151E-02 
7.381E+01   1.355E+01  2.131E-02 
7.467E+01   1.353E+01  2.112E-02 
7.554E+01   1.351E+01  2.092E-02 
7.641E+01   1.350E+01  2.073E-02 
7.730E+01   1.348E+01  2.053E-02 
7.820E+01   1.346E+01  2.034E-02 
7.910E+01   1.344E+01  2.015E-02 
8.002E+01   1.342E+01  1.997E-02 
8.095E+01   1.340E+01  1.978E-02 
8.189E+01   1.338E+01  1.960E-02 
8.284E+01   1.335E+01  1.941E-02 
8.380E+01   1.333E+01  1.923E-02 
8.477E+01   1.331E+01  1.905E-02 
8.575E+01   1.328E+01  1.888E-02 
8.675E+01   1.325E+01  1.870E-02 
8.775E+01   1.323E+01  1.853E-02 
8.877E+01   1.320E+01  1.835E-02 
8.980E+01   1.317E+01  1.818E-02 
9.084E+01   1.314E+01  1.801E-02 
9.190E+01   1.311E+01  1.784E-02 
9.296E+01   1.308E+01  1.768E-02 
9.404E+01   1.305E+01  1.751E-02 
9.513E+01   1.302E+01  1.735E-02 
9.624E+01   1.299E+01  1.718E-02 
9.735E+01   1.295E+01  1.702E-02 
9.848E+01   1.292E+01  1.686E-02 
9.962E+01   1.288E+01  1.670E-02 
1.008E+02   1.285E+01  1.655E-02 
1.019E+02   1.281E+01  1.639E-02 
1.031E+02   1.278E+01  1.624E-02 
1.043E+02   1.274E+01  1.609E-02 
1.055E+02   1.270E+01  1.593E-02 
1.068E+02   1.266E+01  1.578E-02 
1.080E+02   1.262E+01  1.564E-02 
1.093E+02   1.258E+01  1.549E-02 
1.105E+02   1.254E+01  1.534E-02 
1.118E+02   1.250E+01  1.520E-02 
1.131E+02   1.246E+01  1.505E-02 
1.144E+02   1.242E+01  1.491E-02 
1.157E+02   1.238E+01  1.477E-02 
1.171E+02   1.233E+01  1.463E-02 
1.184E+02   1.229E+01  1.449E-02 
1.198E+02   1.225E+01  1.436E-02 
1.212E+02   1.220E+01  1.422E-02 
1.226E+02   1.216E+01  1.409E-02 
1.240E+02   1.211E+01  1.395E-02 
1.255E+02   1.207E+01  1.382E-02 
1.269E+02   1.202E+01  1.369E-02 
1.284E+02   1.198E+01  1.356E-02 
1.299E+02   1.193E+01  1.343E-02 
1.314E+02   1.188E+01  1.330E-02 
1.329E+02   1.183E+01  1.318E-02 
1.345E+02   1.179E+01  1.305E-02 
1.360E+02   1.174E+01  1.293E-02 
1.376E+02   1.169E+01  1.281E-02 
1.392E+02   1.164E+01  1.268E-02 
1.408E+02   1.159E+01  1.256E-02 
1.424E+02   1.154E+01  1.244E-02 
1.441E+02   1.149E+01  1.233E-02 
1.458E+02   1.144E+01  1.221E-02 
1.475E+02   1.139E+01  1.209E-02 
1.492E+02   1.134E+01  1.198E-02 
1.509E+02   1.129E+01  1.186E-02 
1.526E+02   1.124E+01  1.175E-02 
1.544E+02   1.119E+01  1.164E-02 
1.562E+02   1.114E+01  1.153E-02 
1.580E+02   1.108E+01  1.142E-02 
1.598E+02   1.103E+01  1.131E-02 
1.617E+02   1.098E+01  1.120E-02 
1.636E+02   1.093E+01  1.109E-02 
1.655E+02   1.087E+01  1.099E-02 
1.674E+02   1.082E+01  1.088E-02 
1.693E+02   1.077E+01  1.078E-02 
1.713E+02   1.071E+01  1.067E-02 
1.733E+02   1.066E+01  1.057E-02 
1.753E+02   1.061E+01  1.047E-02 
1.773E+02   1.055E+01  1.037E-02 
1.794E+02   1.050E+01  1.027E-02 
1.815E+02   1.045E+01  1.017E-02 
1.836E+02   1.039E+01  1.007E-02 
1.857E+02   1.034E+01  9.978E-03 
1.879E+02   1.029E+01  9.882E-03 
1.900E+02   1.023E+01  9.787E-03 
1.922E+02   1.018E+01  9.693E-03 
1.945E+02   1.012E+01  9.600E-03 
1.967E+02   1.007E+01  9.508E-03 
1.990E+02   1.001E+01  9.416E-03 
2.013E+02   9.960E+00  9.326E-03 
2.036E+02   9.905E+00  9.236E-03 
2.060E+02   9.851E+00  9.147E-03 
2.084E+02   9.796E+00  9.059E-03 
2.108E+02   9.742E+00  8.972E-03 
2.133E+02   9.687E+00  8.885E-03 
2.157E+02   9.633E+00  8.800E-03 
2.182E+02   9.579E+00  8.715E-03 
2.208E+02   9.524E+00  8.631E-03 
2.233E+02   9.470E+00  8.547E-03 
2.259E+02   9.416E+00  8.465E-03 
2.285E+02   9.361E+00  8.383E-03 
2.312E+02   9.307E+00  8.302E-03 
2.339E+02   9.253E+00  8.222E-03 
2.366E+02   9.199E+00  8.142E-03 
2.393E+02   9.145E+00  8.064E-03 
2.421E+02   9.091E+00  7.986E-03 
2.449E+02   9.037E+00  7.908E-03 
2.478E+02   8.983E+00  7.832E-03 
2.506E+02   8.929E+00  7.756E-03 
2.535E+02   8.875E+00  7.681E-03 
2.565E+02   8.822E+00  7.606E-03 
2.595E+02   8.768E+00  7.533E-03 
2.625E+02   8.715E+00  7.459E-03 
2.655E+02   8.662E+00  7.387E-03 
2.686E+02   8.609E+00  7.315E-03 
2.717E+02   8.556E+00  7.244E-03 
2.749E+02   8.503E+00  7.174E-03 
2.780E+02   8.450E+00  7.104E-03 
2.813E+02   8.397E+00  7.035E-03 
2.845E+02   8.345E+00  6.967E-03 
2.878E+02   8.292E+00  6.899E-03 
2.912E+02   8.240E+00  6.832E-03 
2.945E+02   8.188E+00  6.766E-03 
2.980E+02   8.136E+00  6.700E-03 
3.014E+02   8.084E+00  6.635E-03 
3.049E+02   8.033E+00  6.570E-03 
3.085E+02   7.981E+00  6.506E-03 
3.120E+02   7.930E+00  6.443E-03 
3.156E+02   7.879E+00  6.380E-03 
3.193E+02   7.828E+00  6.318E-03 
3.230E+02   7.777E+00  6.256E-03 
3.268E+02   7.726E+00  6.195E-03 
3.306E+02   7.676E+00  6.134E-03 
3.344E+02   7.626E+00  6.075E-03 
3.383E+02   7.575E+00  6.015E-03 
3.422E+02   7.526E+00  5.957E-03 
3.462E+02   7.476E+00  5.898E-03 
3.502E+02   7.426E+00  5.841E-03 
3.542E+02   7.377E+00  5.784E-03 
3.583E+02   7.328E+00  5.727E-03 
3.625E+02   7.279E+00  5.671E-03 
3.667E+02   7.230E+00  5.616E-03 
3.710E+02   7.182E+00  5.561E-03 
3.753E+02   7.133E+00  5.506E-03 
3.796E+02   7.085E+00  5.452E-03 
3.840E+02   7.037E+00  5.399E-03 
3.885E+02   6.989E+00  5.346E-03 
3.930E+02   6.942E+00  5.293E-03 
3.975E+02   6.895E+00  5.242E-03 
4.021E+02   6.847E+00  5.190E-03 
4.068E+02   6.801E+00  5.139E-03 
4.115E+02   6.754E+00  5.089E-03 
4.163E+02   6.707E+00  5.039E-03 
4.211E+02   6.661E+00  4.989E-03 
4.260E+02   6.615E+00  4.940E-03 
4.310E+02   6.569E+00  4.892E-03 
4.360E+02   6.524E+00  4.844E-03 
4.410E+02   6.478E+00  4.796E-03 
4.461E+02   6.433E+00  4.749E-03 
4.513E+02   6.388E+00  4.702E-03 
4.565E+02   6.343E+00  4.656E-03 
4.618E+02   6.299E+00  4.610E-03 
4.672E+02   6.255E+00  4.565E-03 
4.726E+02   6.211E+00  4.520E-03 
4.781E+02   6.167E+00  4.475E-03 
4.836E+02   6.123E+00  4.431E-03 
4.892E+02   6.080E+00  4.388E-03 
4.949E+02   6.037E+00  4.344E-03 
5.007E+02   5.994E+00  4.302E-03 
5.065E+02   5.951E+00  4.259E-03 
5.123E+02   5.909E+00  4.217E-03 
5.183E+02   5.867E+00  4.176E-03 
5.243E+02   5.825E+00  4.134E-03 
5.304E+02   5.783E+00  4.094E-03 
5.365E+02   5.741E+00  4.053E-03 
5.428E+02   5.700E+00  4.013E-03 
5.490E+02   5.659E+00  3.973E-03 
5.554E+02   5.618E+00  3.934E-03 
5.619E+02   5.577E+00  3.895E-03 
5.684E+02   5.537E+00  3.857E-03 
5.750E+02   5.497E+00  3.819E-03 
5.816E+02   5.457E+00  3.781E-03 
5.884E+02   5.417E+00  3.743E-03 
5.952E+02   5.378E+00  3.706E-03 
6.021E+02   5.338E+00  3.670E-03 
6.091E+02   5.299E+00  3.633E-03 
6.162E+02   5.261E+00  3.597E-03 
6.233E+02   5.222E+00  3.562E-03 
6.305E+02   5.184E+00  3.526E-03 
6.378E+02   5.146E+00  3.491E-03 
6.452E+02   5.108E+00  3.457E-03 
6.527E+02   5.070E+00  3.423E-03 
6.603E+02   5.033E+00  3.389E-03 
6.680E+02   4.995E+00  3.355E-03 
6.757E+02   4.958E+00  3.322E-03 
6.835E+02   4.922E+00  3.289E-03 
6.915E+02   4.885E+00  3.256E-03 
6.995E+02   4.849E+00  3.224E-03 
7.076E+02   4.813E+00  3.192E-03 
7.158E+02   4.777E+00  3.160E-03 
7.241E+02   4.741E+00  3.129E-03 
7.325E+02   4.706E+00  3.098E-03 
7.410E+02   4.671E+00  3.067E-03 
7.496E+02   4.636E+00  3.036E-03 
7.583E+02   4.601E+00  3.006E-03 
7.671E+02   4.566E+00  2.976E-03 
7.760E+02   4.532E+00  2.946E-03 
7.850E+02   4.498E+00  2.917E-03 
7.941E+02   4.464E+00  2.888E-03 
8.033E+02   4.430E+00  2.859E-03 
8.126E+02   4.397E+00  2.831E-03 
8.221E+02   4.364E+00  2.803E-03 
8.316E+02   4.331E+00  2.775E-03 
