Ion = Hydrogen    . Mass = 1.0079
Tgt = La (Solid). Density = 6.1738 g/cm3
Stopping Units =  eV/(1E15 atoms/cm2)
Energy(keV)  S(Elec)    S(Nuc)
1.000E+00   7.890E+00  3.089E-01 
1.012E+00   7.935E+00  3.092E-01 
1.023E+00   7.981E+00  3.095E-01 
1.035E+00   8.027E+00  3.098E-01 
1.047E+00   8.074E+00  3.101E-01 
1.059E+00   8.121E+00  3.104E-01 
1.072E+00   8.168E+00  3.107E-01 
1.084E+00   8.215E+00  3.109E-01 
1.097E+00   8.262E+00  3.112E-01 
1.109E+00   8.310E+00  3.115E-01 
1.122E+00   8.358E+00  3.118E-01 
1.135E+00   8.406E+00  3.120E-01 
1.148E+00   8.455E+00  3.123E-01 
1.162E+00   8.504E+00  3.125E-01 
1.175E+00   8.553E+00  3.128E-01 
1.189E+00   8.603E+00  3.130E-01 
1.203E+00   8.652E+00  3.133E-01 
1.217E+00   8.702E+00  3.135E-01 
1.231E+00   8.753E+00  3.137E-01 
1.245E+00   8.803E+00  3.140E-01 
1.259E+00   8.854E+00  3.142E-01 
1.274E+00   8.905E+00  3.144E-01 
1.289E+00   8.957E+00  3.146E-01 
1.304E+00   9.009E+00  3.148E-01 
1.319E+00   9.061E+00  3.150E-01 
1.334E+00   9.113E+00  3.152E-01 
1.350E+00   9.166E+00  3.154E-01 
1.365E+00   9.219E+00  3.155E-01 
1.381E+00   9.272E+00  3.157E-01 
1.397E+00   9.326E+00  3.159E-01 
1.413E+00   9.380E+00  3.161E-01 
1.430E+00   9.434E+00  3.162E-01 
1.446E+00   9.489E+00  3.164E-01 
1.463E+00   9.543E+00  3.165E-01 
1.480E+00   9.599E+00  3.167E-01 
1.497E+00   9.654E+00  3.168E-01 
1.515E+00   9.710E+00  3.169E-01 
1.532E+00   9.766E+00  3.170E-01 
1.550E+00   9.823E+00  3.172E-01 
1.568E+00   9.879E+00  3.173E-01 
1.586E+00   9.937E+00  3.174E-01 
1.605E+00   9.994E+00  3.175E-01 
1.623E+00   1.005E+01  3.176E-01 
1.642E+00   1.011E+01  3.177E-01 
1.661E+00   1.017E+01  3.178E-01 
1.680E+00   1.023E+01  3.178E-01 
1.700E+00   1.029E+01  3.179E-01 
1.719E+00   1.035E+01  3.180E-01 
1.739E+00   1.041E+01  3.180E-01 
1.760E+00   1.047E+01  3.181E-01 
1.780E+00   1.053E+01  3.181E-01 
1.801E+00   1.059E+01  3.182E-01 
1.822E+00   1.065E+01  3.182E-01 
1.843E+00   1.071E+01  3.182E-01 
1.864E+00   1.077E+01  3.183E-01 
1.886E+00   1.083E+01  3.183E-01 
1.908E+00   1.090E+01  3.183E-01 
1.930E+00   1.096E+01  3.183E-01 
1.952E+00   1.102E+01  3.183E-01 
1.975E+00   1.109E+01  3.183E-01 
1.998E+00   1.115E+01  3.183E-01 
2.021E+00   1.121E+01  3.183E-01 
2.044E+00   1.127E+01  3.182E-01 
2.068E+00   1.132E+01  3.182E-01 
2.092E+00   1.138E+01  3.182E-01 
2.116E+00   1.143E+01  3.181E-01 
2.141E+00   1.149E+01  3.181E-01 
2.166E+00   1.155E+01  3.180E-01 
2.191E+00   1.160E+01  3.179E-01 
2.216E+00   1.166E+01  3.179E-01 
2.242E+00   1.172E+01  3.178E-01 
2.268E+00   1.178E+01  3.177E-01 
2.294E+00   1.184E+01  3.176E-01 
2.321E+00   1.189E+01  3.175E-01 
2.348E+00   1.195E+01  3.174E-01 
2.375E+00   1.201E+01  3.173E-01 
2.402E+00   1.207E+01  3.172E-01 
2.430E+00   1.213E+01  3.171E-01 
2.458E+00   1.219E+01  3.169E-01 
2.487E+00   1.225E+01  3.168E-01 
2.516E+00   1.232E+01  3.167E-01 
2.545E+00   1.238E+01  3.165E-01 
2.574E+00   1.244E+01  3.164E-01 
2.604E+00   1.250E+01  3.162E-01 
2.635E+00   1.257E+01  3.160E-01 
2.665E+00   1.263E+01  3.158E-01 
2.696E+00   1.269E+01  3.157E-01 
2.727E+00   1.276E+01  3.155E-01 
2.759E+00   1.282E+01  3.153E-01 
2.791E+00   1.289E+01  3.151E-01 
2.823E+00   1.295E+01  3.149E-01 
2.856E+00   1.302E+01  3.147E-01 
2.889E+00   1.308E+01  3.144E-01 
2.923E+00   1.315E+01  3.142E-01 
2.957E+00   1.322E+01  3.140E-01 
2.991E+00   1.328E+01  3.137E-01 
3.026E+00   1.335E+01  3.135E-01 
3.061E+00   1.342E+01  3.132E-01 
3.096E+00   1.349E+01  3.130E-01 
3.132E+00   1.356E+01  3.127E-01 
3.168E+00   1.363E+01  3.124E-01 
3.205E+00   1.370E+01  3.121E-01 
3.242E+00   1.377E+01  3.118E-01 
3.280E+00   1.384E+01  3.115E-01 
3.318E+00   1.391E+01  3.112E-01 
3.356E+00   1.398E+01  3.109E-01 
3.395E+00   1.406E+01  3.106E-01 
3.435E+00   1.413E+01  3.103E-01 
3.475E+00   1.420E+01  3.100E-01 
3.515E+00   1.428E+01  3.096E-01 
3.556E+00   1.435E+01  3.093E-01 
3.597E+00   1.442E+01  3.089E-01 
3.639E+00   1.450E+01  3.086E-01 
3.681E+00   1.458E+01  3.082E-01 
3.724E+00   1.465E+01  3.078E-01 
3.767E+00   1.473E+01  3.075E-01 
3.810E+00   1.481E+01  3.071E-01 
3.855E+00   1.488E+01  3.067E-01 
3.899E+00   1.496E+01  3.063E-01 
3.945E+00   1.504E+01  3.059E-01 
3.990E+00   1.512E+01  3.055E-01 
4.037E+00   1.520E+01  3.051E-01 
4.083E+00   1.528E+01  3.046E-01 
4.131E+00   1.536E+01  3.042E-01 
4.179E+00   1.544E+01  3.038E-01 
4.227E+00   1.552E+01  3.033E-01 
4.276E+00   1.561E+01  3.029E-01 
4.326E+00   1.569E+01  3.024E-01 
4.376E+00   1.577E+01  3.019E-01 
4.427E+00   1.586E+01  3.015E-01 
4.478E+00   1.594E+01  3.010E-01 
4.530E+00   1.603E+01  3.005E-01 
4.583E+00   1.611E+01  3.000E-01 
4.636E+00   1.620E+01  2.995E-01 
4.690E+00   1.628E+01  2.990E-01 
4.744E+00   1.637E+01  2.985E-01 
4.799E+00   1.646E+01  2.980E-01 
4.855E+00   1.655E+01  2.975E-01 
4.911E+00   1.664E+01  2.969E-01 
4.968E+00   1.673E+01  2.964E-01 
5.026E+00   1.682E+01  2.959E-01 
5.084E+00   1.691E+01  2.953E-01 
5.143E+00   1.700E+01  2.948E-01 
5.202E+00   1.709E+01  2.942E-01 
5.263E+00   1.718E+01  2.936E-01 
5.324E+00   1.728E+01  2.931E-01 
5.386E+00   1.737E+01  2.925E-01 
5.448E+00   1.746E+01  2.919E-01 
5.511E+00   1.756E+01  2.913E-01 
5.575E+00   1.765E+01  2.907E-01 
5.640E+00   1.775E+01  2.901E-01 
5.705E+00   1.785E+01  2.895E-01 
5.771E+00   1.795E+01  2.889E-01 
5.838E+00   1.804E+01  2.883E-01 
5.906E+00   1.814E+01  2.876E-01 
5.975E+00   1.824E+01  2.870E-01 
6.044E+00   1.834E+01  2.864E-01 
6.114E+00   1.844E+01  2.857E-01 
6.185E+00   1.854E+01  2.851E-01 
6.257E+00   1.865E+01  2.844E-01 
6.329E+00   1.875E+01  2.838E-01 
6.403E+00   1.885E+01  2.831E-01 
6.477E+00   1.896E+01  2.824E-01 
6.552E+00   1.906E+01  2.817E-01 
6.628E+00   1.917E+01  2.811E-01 
6.705E+00   1.927E+01  2.804E-01 
6.783E+00   1.938E+01  2.797E-01 
6.861E+00   1.949E+01  2.790E-01 
6.941E+00   1.960E+01  2.783E-01 
7.021E+00   1.971E+01  2.776E-01 
7.103E+00   1.982E+01  2.768E-01 
7.185E+00   1.993E+01  2.761E-01 
7.269E+00   2.004E+01  2.754E-01 
7.353E+00   2.015E+01  2.747E-01 
7.438E+00   2.026E+01  2.739E-01 
7.524E+00   2.038E+01  2.732E-01 
7.612E+00   2.049E+01  2.724E-01 
7.700E+00   2.061E+01  2.717E-01 
7.789E+00   2.072E+01  2.709E-01 
7.880E+00   2.084E+01  2.702E-01 
7.971E+00   2.096E+01  2.694E-01 
8.064E+00   2.107E+01  2.686E-01 
8.157E+00   2.119E+01  2.678E-01 
8.252E+00   2.131E+01  2.671E-01 
8.347E+00   2.143E+01  2.663E-01 
8.444E+00   2.155E+01  2.655E-01 
8.542E+00   2.168E+01  2.647E-01 
8.641E+00   2.180E+01  2.639E-01 
8.741E+00   2.192E+01  2.631E-01 
8.843E+00   2.205E+01  2.623E-01 
8.945E+00   2.217E+01  2.615E-01 
9.049E+00   2.230E+01  2.607E-01 
9.154E+00   2.243E+01  2.598E-01 
9.260E+00   2.256E+01  2.590E-01 
9.368E+00   2.268E+01  2.582E-01 
9.476E+00   2.281E+01  2.574E-01 
9.586E+00   2.294E+01  2.565E-01 
9.698E+00   2.308E+01  2.557E-01 
9.810E+00   2.321E+01  2.548E-01 
9.924E+00   2.334E+01  2.540E-01 
1.004E+01   2.348E+01  2.531E-01 
1.016E+01   2.361E+01  2.523E-01 
1.027E+01   2.375E+01  2.514E-01 
1.039E+01   2.388E+01  2.506E-01 
1.051E+01   2.402E+01  2.497E-01 
1.063E+01   2.416E+01  2.488E-01 
1.076E+01   2.430E+01  2.479E-01 
1.088E+01   2.444E+01  2.471E-01 
1.101E+01   2.458E+01  2.462E-01 
1.114E+01   2.472E+01  2.453E-01 
1.127E+01   2.487E+01  2.444E-01 
1.140E+01   2.501E+01  2.435E-01 
1.153E+01   2.516E+01  2.426E-01 
1.166E+01   2.530E+01  2.418E-01 
1.180E+01   2.545E+01  2.409E-01 
1.193E+01   2.560E+01  2.400E-01 
1.207E+01   2.575E+01  2.391E-01 
1.221E+01   2.590E+01  2.381E-01 
1.235E+01   2.605E+01  2.372E-01 
1.250E+01   2.620E+01  2.363E-01 
1.264E+01   2.635E+01  2.354E-01 
1.279E+01   2.651E+01  2.345E-01 
1.294E+01   2.666E+01  2.336E-01 
1.309E+01   2.682E+01  2.327E-01 
1.324E+01   2.697E+01  2.317E-01 
1.339E+01   2.713E+01  2.308E-01 
1.355E+01   2.729E+01  2.299E-01 
1.371E+01   2.745E+01  2.290E-01 
1.387E+01   2.761E+01  2.280E-01 
1.403E+01   2.777E+01  2.271E-01 
1.419E+01   2.794E+01  2.262E-01 
1.435E+01   2.810E+01  2.252E-01 
1.452E+01   2.826E+01  2.243E-01 
1.469E+01   2.843E+01  2.234E-01 
1.486E+01   2.860E+01  2.224E-01 
1.503E+01   2.877E+01  2.215E-01 
1.521E+01   2.893E+01  2.205E-01 
1.538E+01   2.911E+01  2.196E-01 
1.556E+01   2.928E+01  2.186E-01 
1.574E+01   2.945E+01  2.177E-01 
1.592E+01   2.962E+01  2.167E-01 
1.611E+01   2.980E+01  2.158E-01 
1.629E+01   2.997E+01  2.148E-01 
1.648E+01   3.015E+01  2.139E-01 
1.667E+01   3.033E+01  2.129E-01 
1.687E+01   3.050E+01  2.120E-01 
1.706E+01   3.068E+01  2.110E-01 
1.726E+01   3.087E+01  2.101E-01 
1.746E+01   3.105E+01  2.091E-01 
1.766E+01   3.123E+01  2.081E-01 
1.787E+01   3.141E+01  2.072E-01 
1.808E+01   3.160E+01  2.062E-01 
1.829E+01   3.178E+01  2.053E-01 
1.850E+01   3.197E+01  2.043E-01 
1.871E+01   3.216E+01  2.034E-01 
1.893E+01   3.235E+01  2.024E-01 
1.915E+01   3.254E+01  2.014E-01 
1.937E+01   3.273E+01  2.005E-01 
1.960E+01   3.292E+01  1.995E-01 
1.982E+01   3.312E+01  1.985E-01 
2.005E+01   3.331E+01  1.976E-01 
2.029E+01   3.351E+01  1.966E-01 
2.052E+01   3.370E+01  1.957E-01 
2.076E+01   3.390E+01  1.947E-01 
2.100E+01   3.410E+01  1.937E-01 
2.124E+01   3.430E+01  1.928E-01 
2.149E+01   3.450E+01  1.918E-01 
2.174E+01   3.470E+01  1.909E-01 
2.199E+01   3.490E+01  1.899E-01 
2.225E+01   3.511E+01  1.889E-01 
2.250E+01   3.531E+01  1.880E-01 
2.277E+01   3.552E+01  1.870E-01 
2.303E+01   3.572E+01  1.861E-01 
2.330E+01   3.593E+01  1.851E-01 
2.357E+01   3.614E+01  1.842E-01 
2.384E+01   3.635E+01  1.832E-01 
2.412E+01   3.656E+01  1.823E-01 
2.440E+01   3.677E+01  1.813E-01 
2.468E+01   3.698E+01  1.803E-01 
2.497E+01   3.719E+01  1.794E-01 
2.526E+01   3.740E+01  1.784E-01 
2.555E+01   3.762E+01  1.775E-01 
2.584E+01   3.783E+01  1.766E-01 
2.614E+01   3.805E+01  1.756E-01 
2.645E+01   3.826E+01  1.747E-01 
2.675E+01   3.848E+01  1.737E-01 
2.707E+01   3.870E+01  1.728E-01 
2.738E+01   3.892E+01  1.718E-01 
2.770E+01   3.914E+01  1.709E-01 
2.802E+01   3.936E+01  1.700E-01 
2.834E+01   3.958E+01  1.690E-01 
2.867E+01   3.980E+01  1.681E-01 
2.900E+01   4.002E+01  1.671E-01 
2.934E+01   4.024E+01  1.662E-01 
2.968E+01   4.047E+01  1.653E-01 
3.003E+01   4.069E+01  1.644E-01 
3.037E+01   4.092E+01  1.634E-01 
3.073E+01   4.114E+01  1.625E-01 
3.108E+01   4.137E+01  1.616E-01 
3.144E+01   4.159E+01  1.607E-01 
3.181E+01   4.182E+01  1.597E-01 
3.218E+01   4.204E+01  1.588E-01 
3.255E+01   4.227E+01  1.579E-01 
3.293E+01   4.250E+01  1.570E-01 
3.331E+01   4.272E+01  1.561E-01 
3.370E+01   4.295E+01  1.552E-01 
3.409E+01   4.318E+01  1.543E-01 
3.448E+01   4.340E+01  1.534E-01 
3.488E+01   4.363E+01  1.525E-01 
3.529E+01   4.386E+01  1.516E-01 
3.570E+01   4.409E+01  1.507E-01 
3.611E+01   4.432E+01  1.498E-01 
3.653E+01   4.454E+01  1.489E-01 
3.695E+01   4.477E+01  1.480E-01 
3.738E+01   4.500E+01  1.471E-01 
3.781E+01   4.523E+01  1.462E-01 
3.825E+01   4.545E+01  1.453E-01 
3.870E+01   4.568E+01  1.444E-01 
3.915E+01   4.591E+01  1.436E-01 
3.960E+01   4.613E+01  1.427E-01 
4.006E+01   4.636E+01  1.418E-01 
4.052E+01   4.658E+01  1.409E-01 
4.099E+01   4.681E+01  1.401E-01 
4.147E+01   4.703E+01  1.392E-01 
4.195E+01   4.725E+01  1.384E-01 
4.244E+01   4.748E+01  1.375E-01 
4.293E+01   4.770E+01  1.366E-01 
4.343E+01   4.792E+01  1.358E-01 
4.393E+01   4.814E+01  1.349E-01 
4.444E+01   4.836E+01  1.341E-01 
4.496E+01   4.858E+01  1.332E-01 
4.548E+01   4.879E+01  1.324E-01 
4.600E+01   4.901E+01  1.316E-01 
4.654E+01   4.922E+01  1.307E-01 
4.708E+01   4.944E+01  1.299E-01 
4.762E+01   4.965E+01  1.290E-01 
4.818E+01   4.986E+01  1.282E-01 
4.873E+01   5.007E+01  1.274E-01 
4.930E+01   5.028E+01  1.266E-01 
4.987E+01   5.048E+01  1.258E-01 
5.045E+01   5.069E+01  1.249E-01 
5.104E+01   5.089E+01  1.241E-01 
5.163E+01   5.109E+01  1.233E-01 
5.223E+01   5.129E+01  1.225E-01 
5.283E+01   5.149E+01  1.217E-01 
5.344E+01   5.168E+01  1.209E-01 
5.406E+01   5.188E+01  1.201E-01 
5.469E+01   5.207E+01  1.193E-01 
5.533E+01   5.226E+01  1.185E-01 
5.597E+01   5.245E+01  1.177E-01 
5.662E+01   5.263E+01  1.170E-01 
5.727E+01   5.281E+01  1.162E-01 
5.794E+01   5.299E+01  1.154E-01 
5.861E+01   5.317E+01  1.146E-01 
5.929E+01   5.334E+01  1.139E-01 
5.998E+01   5.352E+01  1.131E-01 
6.067E+01   5.369E+01  1.123E-01 
6.138E+01   5.385E+01  1.116E-01 
6.209E+01   5.402E+01  1.108E-01 
6.281E+01   5.418E+01  1.100E-01 
6.354E+01   5.433E+01  1.093E-01 
6.427E+01   5.449E+01  1.085E-01 
6.502E+01   5.464E+01  1.078E-01 
6.577E+01   5.479E+01  1.071E-01 
6.654E+01   5.493E+01  1.063E-01 
6.731E+01   5.508E+01  1.056E-01 
6.809E+01   5.521E+01  1.049E-01 
6.888E+01   5.535E+01  1.041E-01 
6.968E+01   5.548E+01  1.034E-01 
7.049E+01   5.561E+01  1.027E-01 
7.130E+01   5.573E+01  1.020E-01 
7.213E+01   5.585E+01  1.013E-01 
7.297E+01   5.597E+01  1.005E-01 
7.381E+01   5.608E+01  9.984E-02 
7.467E+01   5.619E+01  9.914E-02 
7.554E+01   5.630E+01  9.844E-02 
7.641E+01   5.640E+01  9.774E-02 
7.730E+01   5.649E+01  9.705E-02 
7.820E+01   5.659E+01  9.636E-02 
7.910E+01   5.668E+01  9.567E-02 
8.002E+01   5.676E+01  9.499E-02 
8.095E+01   5.684E+01  9.431E-02 
8.189E+01   5.692E+01  9.363E-02 
8.284E+01   5.699E+01  9.296E-02 
8.380E+01   5.706E+01  9.229E-02 
8.477E+01   5.712E+01  9.163E-02 
8.575E+01   5.718E+01  9.097E-02 
8.675E+01   5.723E+01  9.031E-02 
8.775E+01   5.728E+01  8.965E-02 
8.877E+01   5.733E+01  8.900E-02 
8.980E+01   5.737E+01  8.836E-02 
9.084E+01   5.741E+01  8.771E-02 
9.190E+01   5.744E+01  8.707E-02 
9.296E+01   5.746E+01  8.643E-02 
9.404E+01   5.749E+01  8.580E-02 
9.513E+01   5.750E+01  8.517E-02 
9.624E+01   5.752E+01  8.454E-02 
9.735E+01   5.753E+01  8.392E-02 
9.848E+01   5.753E+01  8.330E-02 
9.962E+01   5.753E+01  8.268E-02 
1.008E+02   5.752E+01  8.207E-02 
1.019E+02   5.751E+01  8.146E-02 
1.031E+02   5.750E+01  8.085E-02 
1.043E+02   5.748E+01  8.025E-02 
1.055E+02   5.746E+01  7.965E-02 
1.068E+02   5.743E+01  7.906E-02 
1.080E+02   5.740E+01  7.846E-02 
1.093E+02   5.736E+01  7.787E-02 
1.105E+02   5.732E+01  7.729E-02 
1.118E+02   5.727E+01  7.671E-02 
1.131E+02   5.722E+01  7.613E-02 
1.144E+02   5.716E+01  7.555E-02 
1.157E+02   5.710E+01  7.498E-02 
1.171E+02   5.703E+01  7.441E-02 
1.184E+02   5.696E+01  7.385E-02 
1.198E+02   5.689E+01  7.328E-02 
1.212E+02   5.681E+01  7.273E-02 
1.226E+02   5.673E+01  7.217E-02 
1.240E+02   5.664E+01  7.162E-02 
1.255E+02   5.655E+01  7.107E-02 
1.269E+02   5.645E+01  7.052E-02 
1.284E+02   5.635E+01  6.998E-02 
1.299E+02   5.625E+01  6.944E-02 
1.314E+02   5.614E+01  6.891E-02 
1.329E+02   5.603E+01  6.838E-02 
1.345E+02   5.591E+01  6.785E-02 
1.360E+02   5.579E+01  6.732E-02 
1.376E+02   5.567E+01  6.680E-02 
1.392E+02   5.554E+01  6.628E-02 
1.408E+02   5.541E+01  6.577E-02 
1.424E+02   5.527E+01  6.525E-02 
1.441E+02   5.513E+01  6.475E-02 
1.458E+02   5.499E+01  6.424E-02 
1.475E+02   5.484E+01  6.374E-02 
1.492E+02   5.469E+01  6.324E-02 
1.509E+02   5.454E+01  6.274E-02 
1.526E+02   5.438E+01  6.225E-02 
1.544E+02   5.422E+01  6.176E-02 
1.562E+02   5.406E+01  6.127E-02 
1.580E+02   5.389E+01  6.079E-02 
1.598E+02   5.372E+01  6.031E-02 
1.617E+02   5.354E+01  5.983E-02 
1.636E+02   5.337E+01  5.936E-02 
1.655E+02   5.319E+01  5.889E-02 
1.674E+02   5.301E+01  5.842E-02 
1.693E+02   5.282E+01  5.795E-02 
1.713E+02   5.263E+01  5.749E-02 
1.733E+02   5.244E+01  5.703E-02 
1.753E+02   5.225E+01  5.658E-02 
1.773E+02   5.205E+01  5.612E-02 
1.794E+02   5.185E+01  5.567E-02 
1.815E+02   5.165E+01  5.523E-02 
1.836E+02   5.145E+01  5.478E-02 
1.857E+02   5.124E+01  5.434E-02 
1.879E+02   5.103E+01  5.558E-02 
1.900E+02   5.082E+01  5.513E-02 
1.922E+02   5.061E+01  5.468E-02 
1.945E+02   5.040E+01  5.423E-02 
1.967E+02   5.018E+01  5.379E-02 
1.990E+02   4.996E+01  5.335E-02 
2.013E+02   4.974E+01  5.291E-02 
2.036E+02   4.952E+01  5.248E-02 
2.060E+02   4.930E+01  5.205E-02 
2.084E+02   4.907E+01  5.162E-02 
2.108E+02   4.885E+01  5.120E-02 
2.133E+02   4.862E+01  5.078E-02 
2.157E+02   4.839E+01  5.036E-02 
2.182E+02   4.816E+01  4.995E-02 
2.208E+02   4.793E+01  4.953E-02 
2.233E+02   4.770E+01  4.912E-02 
2.259E+02   4.746E+01  4.872E-02 
2.285E+02   4.723E+01  4.831E-02 
2.312E+02   4.699E+01  4.791E-02 
2.339E+02   4.675E+01  4.751E-02 
2.366E+02   4.651E+01  4.712E-02 
2.393E+02   4.627E+01  4.673E-02 
2.421E+02   4.603E+01  4.634E-02 
2.449E+02   4.579E+01  4.595E-02 
2.478E+02   4.555E+01  4.556E-02 
2.506E+02   4.531E+01  4.518E-02 
2.535E+02   4.506E+01  4.480E-02 
2.565E+02   4.482E+01  4.443E-02 
2.595E+02   4.458E+01  4.406E-02 
2.625E+02   4.433E+01  4.369E-02 
2.655E+02   4.409E+01  4.332E-02 
2.686E+02   4.384E+01  4.295E-02 
2.717E+02   4.360E+01  4.259E-02 
2.749E+02   4.335E+01  4.223E-02 
2.780E+02   4.311E+01  4.187E-02 
2.813E+02   4.286E+01  4.152E-02 
2.845E+02   4.261E+01  4.117E-02 
2.878E+02   4.237E+01  4.082E-02 
2.912E+02   4.212E+01  4.047E-02 
2.945E+02   4.187E+01  4.013E-02 
2.980E+02   4.163E+01  3.979E-02 
3.014E+02   4.138E+01  3.945E-02 
3.049E+02   4.113E+01  3.911E-02 
3.085E+02   4.089E+01  3.878E-02 
3.120E+02   4.064E+01  3.845E-02 
3.156E+02   4.040E+01  3.812E-02 
3.193E+02   4.015E+01  3.779E-02 
3.230E+02   3.991E+01  3.747E-02 
3.268E+02   3.966E+01  3.715E-02 
3.306E+02   3.942E+01  3.683E-02 
3.344E+02   3.917E+01  3.651E-02 
3.383E+02   3.893E+01  3.620E-02 
3.422E+02   3.869E+01  3.588E-02 
3.462E+02   3.845E+01  3.557E-02 
3.502E+02   3.820E+01  3.527E-02 
3.542E+02   3.796E+01  3.496E-02 
3.583E+02   3.772E+01  3.466E-02 
3.625E+02   3.748E+01  3.436E-02 
3.667E+02   3.724E+01  3.406E-02 
3.710E+02   3.700E+01  3.377E-02 
3.753E+02   3.677E+01  3.348E-02 
3.796E+02   3.653E+01  3.318E-02 
3.840E+02   3.629E+01  3.290E-02 
3.885E+02   3.605E+01  3.261E-02 
3.930E+02   3.582E+01  3.233E-02 
3.975E+02   3.559E+01  3.204E-02 
4.021E+02   3.535E+01  3.177E-02 
4.068E+02   3.512E+01  3.149E-02 
4.115E+02   3.489E+01  3.121E-02 
4.163E+02   3.466E+01  3.094E-02 
4.211E+02   3.443E+01  3.067E-02 
4.260E+02   3.420E+01  3.040E-02 
4.310E+02   3.397E+01  3.013E-02 
4.360E+02   3.374E+01  2.987E-02 
4.410E+02   3.351E+01  2.961E-02 
4.461E+02   3.329E+01  2.935E-02 
4.513E+02   3.306E+01  2.909E-02 
4.565E+02   3.284E+01  2.883E-02 
4.618E+02   3.262E+01  2.858E-02 
4.672E+02   3.239E+01  2.833E-02 
4.726E+02   3.217E+01  2.808E-02 
4.781E+02   3.195E+01  2.783E-02 
4.836E+02   3.174E+01  2.758E-02 
4.892E+02   3.152E+01  2.734E-02 
4.949E+02   3.130E+01  2.710E-02 
5.007E+02   3.109E+01  2.686E-02 
5.065E+02   3.087E+01  2.662E-02 
5.123E+02   3.066E+01  2.638E-02 
5.183E+02   3.044E+01  2.615E-02 
5.243E+02   3.023E+01  2.592E-02 
5.304E+02   3.002E+01  2.569E-02 
5.365E+02   2.981E+01  2.546E-02 
5.428E+02   2.961E+01  2.523E-02 
5.490E+02   2.940E+01  2.500E-02 
5.554E+02   2.919E+01  2.478E-02 
5.619E+02   2.899E+01  2.456E-02 
5.684E+02   2.879E+01  2.434E-02 
5.750E+02   2.858E+01  2.412E-02 
5.816E+02   2.838E+01  2.391E-02 
5.884E+02   2.818E+01  2.369E-02 
5.952E+02   2.798E+01  2.348E-02 
6.021E+02   2.778E+01  2.327E-02 
6.091E+02   2.759E+01  2.306E-02 
6.162E+02   2.739E+01  2.286E-02 
6.233E+02   2.720E+01  2.265E-02 
6.305E+02   2.700E+01  2.245E-02 
6.378E+02   2.681E+01  2.224E-02 
6.452E+02   2.662E+01  2.204E-02 
6.527E+02   2.643E+01  2.185E-02 
6.603E+02   2.624E+01  2.165E-02 
6.680E+02   2.605E+01  2.145E-02 
6.757E+02   2.587E+01  2.126E-02 
6.835E+02   2.568E+01  2.107E-02 
6.915E+02   2.550E+01  2.088E-02 
6.995E+02   2.531E+01  2.069E-02 
7.076E+02   2.513E+01  2.050E-02 
7.158E+02   2.495E+01  2.032E-02 
7.241E+02   2.477E+01  2.013E-02 
7.325E+02   2.459E+01  1.995E-02 
7.410E+02   2.441E+01  1.977E-02 
7.496E+02   2.424E+01  1.959E-02 
7.583E+02   2.406E+01  1.941E-02 
7.671E+02   2.389E+01  1.923E-02 
7.760E+02   2.371E+01  1.906E-02 
7.850E+02   2.354E+01  1.889E-02 
7.941E+02   2.337E+01  1.871E-02 
8.033E+02   2.320E+01  1.854E-02 
8.126E+02   2.303E+01  1.837E-02 
8.221E+02   2.287E+01  1.821E-02 
8.316E+02   2.270E+01  1.804E-02 
